00:00:05.000	-0.315	-0.005
00:00:05.002	-0.240	-0.005
00:00:05.004	-0.210	-0.010
00:00:05.006	-0.170	-0.010
00:00:05.008	-0.080	-0.005
00:00:05.010	0.020	0.005
00:00:05.012	-0.025	0.010
00:00:05.014	-0.065	0.020
00:00:05.016	-0.035	0.030
00:00:05.018	-0.155	0.035
00:00:05.020	-0.190	0.040
00:00:05.022	-0.230	0.040
00:00:05.024	-0.220	0.040
00:00:05.026	-0.095	0.040
00:00:05.028	-0.080	0.040
00:00:05.030	-0.020	0.045
00:00:05.032	0.080	0.045
00:00:05.034	0.055	0.045
00:00:05.036	-0.080	0.050
00:00:05.038	-0.120	0.050
00:00:05.040	-0.230	0.050
00:00:05.042	-0.240	0.045
00:00:05.044	-0.155	0.035
00:00:05.046	-0.105	0.030
00:00:05.048	-0.065	0.020
00:00:05.050	0.005	0.020
00:00:05.052	0.030	0.020
00:00:05.054	0.015	0.025
00:00:05.056	-0.125	0.035
00:00:05.058	-0.105	0.050
00:00:05.060	-0.155	0.065
00:00:05.062	-0.140	0.075
00:00:05.064	-0.140	0.085
00:00:05.066	-0.055	0.085
00:00:05.068	-0.020	0.080
00:00:05.070	0.080	0.070
00:00:05.072	0.010	0.060
00:00:05.074	-0.050	0.055
00:00:05.076	-0.060	0.050
00:00:05.078	-0.010	0.050
00:00:05.080	-0.205	0.055
00:00:05.082	-0.220	0.070
00:00:05.084	-0.185	0.090
00:00:05.086	-0.035	0.110
00:00:05.088	0.030	0.130
00:00:05.090	0.205	0.145
00:00:05.092	0.235	0.160
00:00:05.094	0.115	0.170
00:00:05.096	0.060	0.180
00:00:05.098	0.040	0.185
00:00:05.100	-0.115	0.185
00:00:05.102	-0.095	0.185
00:00:05.104	-0.020	0.185
00:00:05.106	0.115	0.185
00:00:05.108	0.125	0.180
00:00:05.110	0.190	0.180
00:00:05.112	0.135	0.175
00:00:05.114	0.110	0.175
00:00:05.116	0.135	0.180
00:00:05.118	-0.040	0.185
00:00:05.120	-0.130	0.190
00:00:05.122	-0.020	0.200
00:00:05.124	-0.080	0.205
00:00:05.126	0.090	0.210
00:00:05.128	0.240	0.210
00:00:05.130	0.260	0.205
00:00:05.132	0.180	0.195
00:00:05.134	0.050	0.180
00:00:05.136	0.005	0.170
00:00:05.138	-0.015	0.155
00:00:05.140	-0.120	0.150
00:00:05.142	-0.130	0.150
00:00:05.144	-0.040	0.155
00:00:05.146	0.105	0.165
00:00:05.148	0.090	0.175
00:00:05.150	0.230	0.185
00:00:05.152	0.180	0.185
00:00:05.154	0.115	0.185
00:00:05.156	-0.015	0.175
00:00:05.158	-0.035	0.160
00:00:05.160	-0.155	0.145
00:00:05.162	-0.160	0.125
00:00:05.164	-0.040	0.110
00:00:05.166	0.010	0.095
00:00:05.168	-0.005	0.085
00:00:05.170	0.115	0.080
00:00:05.172	0.040	0.075
00:00:05.174	-0.020	0.075
00:00:05.176	-0.065	0.070
00:00:05.178	-0.135	0.060
00:00:05.180	-0.195	0.055
00:00:05.182	-0.180	0.040
00:00:05.184	-0.165	0.030
00:00:05.186	-0.115	0.015
00:00:05.188	-0.075	0.005
00:00:05.190	-0.030	-0.005
00:00:05.192	-0.005	-0.010
00:00:05.194	-0.060	-0.010
00:00:05.196	-0.170	-0.010
00:00:05.198	-0.250	-0.010
00:00:05.200	-0.280	-0.005
00:00:05.202	-0.190	-0.005
00:00:05.204	-0.155	-0.010
00:00:05.206	-0.130	-0.015
00:00:05.208	-0.140	-0.025
00:00:05.210	-0.065	-0.035
00:00:05.212	-0.075	-0.040
00:00:05.214	-0.080	-0.045
00:00:05.216	-0.220	-0.050
00:00:05.218	-0.185	-0.055
00:00:05.220	-0.305	-0.055
00:00:05.222	-0.335	-0.055
00:00:05.224	-0.320	-0.060
00:00:05.226	-0.150	-0.060
00:00:05.228	-0.120	-0.060
00:00:05.230	-0.035	-0.060
00:00:05.232	-0.035	-0.060
00:00:05.234	-0.180	-0.055
00:00:05.236	-0.295	-0.055
00:00:05.238	-0.200	-0.050
00:00:05.240	-0.270	-0.040
00:00:05.242	-0.285	-0.035
00:00:05.244	-0.220	-0.035
00:00:05.246	-0.105	-0.030
00:00:05.248	-0.070	-0.030
00:00:05.250	-0.055	-0.035
00:00:05.252	-0.095	-0.040
00:00:05.254	-0.120	-0.040
00:00:05.256	-0.185	-0.045
00:00:05.258	-0.280	-0.045
00:00:05.260	-0.250	-0.050
00:00:05.262	-0.230	-0.045
00:00:05.264	-0.170	-0.045
00:00:05.266	-0.100	-0.045
00:00:05.268	-0.120	-0.045
00:00:05.270	-0.065	-0.045
00:00:05.272	-0.105	-0.045
00:00:05.274	-0.175	-0.045
00:00:05.276	-0.190	-0.045
00:00:05.278	-0.275	-0.040
00:00:05.280	-0.225	-0.035
00:00:05.282	-0.260	-0.030
00:00:05.284	-0.150	-0.020
00:00:05.286	-0.130	-0.015
00:00:05.288	-0.085	-0.015
00:00:05.290	0.015	-0.015
00:00:05.292	-0.060	-0.015
00:00:05.294	-0.160	-0.020
00:00:05.296	-0.165	-0.030
00:00:05.298	-0.265	-0.040
00:00:05.300	-0.330	-0.045
00:00:05.302	-0.250	-0.050
00:00:05.304	-0.230	-0.055
00:00:05.306	-0.140	-0.055
00:00:05.308	-0.020	-0.050
00:00:05.310	0.000	-0.050
00:00:05.312	-0.055	-0.050
00:00:05.314	-0.215	-0.050
00:00:05.316	-0.215	-0.050
00:00:05.318	-0.330	-0.055
00:00:05.320	-0.340	-0.050
00:00:05.322	-0.225	-0.050
00:00:05.324	-0.195	-0.045
00:00:05.326	-0.055	-0.035
00:00:05.328	-0.055	-0.025
00:00:05.330	-0.015	-0.015
00:00:05.332	-0.020	-0.005
00:00:05.334	-0.045	-0.005
00:00:05.336	-0.120	-0.005
00:00:05.338	-0.265	-0.010
00:00:05.340	-0.330	-0.020
00:00:05.342	-0.280	-0.030
00:00:05.344	-0.220	-0.040
00:00:05.346	-0.210	-0.045
00:00:05.348	0.010	-0.045
00:00:05.350	0.030	-0.040
00:00:05.352	-0.105	-0.035
00:00:05.354	-0.095	-0.025
00:00:05.356	-0.200	-0.020
00:00:05.358	-0.355	-0.020
00:00:05.360	-0.250	-0.020
00:00:05.362	-0.190	-0.025
00:00:05.364	-0.150	-0.030
00:00:05.366	-0.150	-0.040
00:00:05.368	-0.065	-0.045
00:00:05.370	-0.055	-0.045
00:00:05.372	-0.065	-0.045
00:00:05.374	-0.135	-0.040
00:00:05.376	-0.265	-0.035
00:00:05.378	-0.300	-0.030
00:00:05.380	-0.195	-0.030
00:00:05.382	-0.245	-0.030
00:00:05.384	-0.190	-0.030
00:00:05.386	-0.110	-0.035
00:00:05.388	-0.015	-0.040
00:00:05.390	-0.060	-0.045
00:00:05.392	-0.110	-0.045
00:00:05.394	-0.175	-0.045
00:00:05.396	-0.195	-0.040
00:00:05.398	-0.255	-0.035
00:00:05.400	-0.265	-0.035
00:00:05.402	-0.270	-0.030
00:00:05.404	-0.160	-0.030
00:00:05.406	-0.100	-0.030
00:00:05.408	-0.060	-0.035
00:00:05.410	-0.065	-0.035
00:00:05.412	-0.080	-0.035
00:00:05.414	-0.180	-0.030
00:00:05.416	-0.190	-0.025
00:00:05.418	-0.275	-0.020
00:00:05.420	-0.220	-0.015
00:00:05.422	-0.190	-0.020
00:00:05.424	-0.165	-0.025
00:00:05.426	-0.110	-0.040
00:00:05.428	-0.040	-0.055
00:00:05.430	-0.105	-0.070
00:00:05.432	-0.175	-0.085
00:00:05.434	-0.270	-0.090
00:00:05.436	-0.260	-0.085
00:00:05.438	-0.330	-0.070
00:00:05.440	-0.275	-0.050
00:00:05.442	-0.145	-0.030
00:00:05.444	-0.145	-0.010
00:00:05.446	-0.100	0.005
00:00:05.448	0.050	0.010
00:00:05.450	-0.010	0.010
00:00:05.452	-0.095	-0.005
00:00:05.454	-0.155	-0.020
00:00:05.456	-0.235	-0.035
00:00:05.458	-0.345	-0.050
00:00:05.460	-0.270	-0.055
00:00:05.462	-0.220	-0.055
00:00:05.464	-0.175	-0.050
00:00:05.466	-0.195	-0.035
00:00:05.468	-0.015	-0.025
00:00:05.470	0.015	-0.015
00:00:05.472	-0.030	-0.015
00:00:05.474	-0.125	-0.020
00:00:05.476	-0.260	-0.025
00:00:05.478	-0.370	-0.035
00:00:05.480	-0.335	-0.045
00:00:05.482	-0.235	-0.045
00:00:05.484	-0.085	-0.045
00:00:05.486	0.010	-0.035
00:00:05.488	0.095	-0.020
00:00:05.490	-0.075	-0.010
00:00:05.492	-0.165	0.000
00:00:05.494	-0.140	0.005
00:00:05.496	-0.120	0.000
00:00:05.498	-0.320	-0.010
00:00:05.500	-0.350	-0.025
00:00:05.502	-0.205	-0.045
00:00:05.504	-0.110	-0.060
00:00:05.506	-0.150	-0.075
00:00:05.508	-0.075	-0.080
00:00:05.510	-0.080	-0.080
00:00:05.512	-0.090	-0.070
00:00:05.514	-0.195	-0.065
00:00:05.516	-0.230	-0.060
00:00:05.518	-0.370	-0.055
00:00:05.520	-0.325	-0.055
00:00:05.522	-0.225	-0.060
00:00:05.524	-0.165	-0.065
00:00:05.526	-0.180	-0.070
00:00:05.528	-0.035	-0.075
00:00:05.530	-0.035	-0.075
00:00:05.532	-0.155	-0.065
00:00:05.534	-0.170	-0.060
00:00:05.536	-0.190	-0.045
00:00:05.538	-0.330	-0.035
00:00:05.540	-0.320	-0.030
00:00:05.542	-0.275	-0.025
00:00:05.544	-0.090	-0.025
00:00:05.546	-0.020	-0.030
00:00:05.548	0.000	-0.035
00:00:05.550	-0.085	-0.040
00:00:05.552	-0.235	-0.045
00:00:05.554	-0.240	-0.045
00:00:05.556	-0.210	-0.045
00:00:05.558	-0.270	-0.045
00:00:05.560	-0.225	-0.045
00:00:05.562	-0.190	-0.040
00:00:05.564	-0.100	-0.040
00:00:05.566	-0.125	-0.035
00:00:05.568	-0.075	-0.030
00:00:05.570	-0.095	-0.025
00:00:05.572	-0.105	-0.020
00:00:05.574	-0.170	-0.015
00:00:05.576	-0.220	-0.010
00:00:05.578	-0.160	-0.010
00:00:05.580	-0.210	-0.015
00:00:05.582	-0.215	-0.015
00:00:05.584	-0.150	-0.025
00:00:05.586	-0.055	-0.030
00:00:05.588	-0.075	-0.030
00:00:05.590	-0.045	-0.030
00:00:05.592	-0.085	-0.020
00:00:05.594	-0.160	-0.010
00:00:05.596	-0.260	0.005
00:00:05.598	-0.200	0.020
00:00:05.600	-0.135	0.030
00:00:05.602	-0.155	0.035
00:00:05.604	-0.090	0.030
00:00:05.606	0.030	0.020
00:00:05.608	0.000	0.005
00:00:05.610	-0.125	-0.010
00:00:05.612	-0.135	-0.025
00:00:05.614	-0.170	-0.040
00:00:05.616	-0.255	-0.045
00:00:05.618	-0.265	-0.045
00:00:05.620	-0.195	-0.045
00:00:05.622	-0.155	-0.040
00:00:05.624	-0.195	-0.035
00:00:05.626	-0.165	-0.035
00:00:05.628	-0.110	-0.035
00:00:05.630	-0.050	-0.035
00:00:05.632	-0.085	-0.035
00:00:05.634	-0.155	-0.040
00:00:05.636	-0.285	-0.040
00:00:05.638	-0.260	-0.045
00:00:05.640	-0.305	-0.050
00:00:05.642	-0.265	-0.055
00:00:05.644	-0.110	-0.060
00:00:05.646	0.000	-0.070
00:00:05.648	-0.110	-0.080
00:00:05.650	-0.190	-0.085
00:00:05.652	-0.195	-0.085
00:00:05.654	-0.230	-0.085
00:00:05.656	-0.320	-0.075
00:00:05.658	-0.270	-0.060
00:00:05.660	-0.270	-0.045
00:00:05.662	-0.180	-0.030
00:00:05.664	-0.120	-0.020
00:00:05.666	-0.035	-0.015
00:00:05.668	-0.035	-0.020
00:00:05.670	-0.060	-0.030
00:00:05.672	-0.165	-0.040
00:00:05.674	-0.215	-0.055
00:00:05.676	-0.345	-0.065
00:00:05.678	-0.305	-0.070
00:00:05.680	-0.255	-0.065
00:00:05.682	-0.195	-0.055
00:00:05.684	-0.190	-0.040
00:00:05.686	-0.010	-0.025
00:00:05.688	-0.025	-0.010
00:00:05.690	-0.045	0.005
00:00:05.692	-0.095	0.015
00:00:05.694	-0.135	0.025
00:00:05.696	-0.230	0.040
00:00:05.698	-0.170	0.055
00:00:05.700	-0.175	0.070
00:00:05.702	-0.050	0.090
00:00:05.704	0.000	0.110
00:00:05.706	0.220	0.135
00:00:05.708	0.140	0.155
00:00:05.710	0.040	0.170
00:00:05.712	0.035	0.185
00:00:05.714	0.035	0.195
00:00:05.716	0.020	0.200
00:00:05.718	0.035	0.200
00:00:05.720	0.010	0.190
00:00:05.722	0.050	0.175
00:00:05.724	0.045	0.150
00:00:05.726	0.140	0.115
00:00:05.728	0.040	0.075
00:00:05.730	-0.100	0.025
00:00:05.732	-0.220	-0.025
00:00:05.734	-0.275	-0.070
00:00:05.736	-0.390	-0.105
00:00:05.738	-0.405	-0.130
00:00:05.740	-0.330	-0.135
00:00:05.742	-0.200	-0.130
00:00:05.744	-0.150	-0.110
00:00:05.746	-0.065	-0.085
00:00:05.748	-0.040	-0.060
00:00:05.750	-0.140	-0.045
00:00:05.752	-0.225	-0.035
00:00:05.754	-0.305	-0.035
00:00:05.756	-0.345	-0.045
00:00:05.758	-0.295	-0.055
00:00:05.760	-0.240	-0.065
00:00:05.762	-0.115	-0.075
00:00:05.764	-0.100	-0.080
00:00:05.766	-0.105	-0.080
00:00:05.768	-0.095	-0.075
00:00:05.770	-0.195	-0.065
00:00:05.772	-0.245	-0.060
00:00:05.774	-0.245	-0.060
00:00:05.776	-0.325	-0.060
00:00:05.778	-0.315	-0.060
00:00:05.780	-0.195	-0.060
00:00:05.782	-0.110	-0.060
00:00:05.784	-0.140	-0.050
00:00:05.786	-0.010	-0.035
00:00:05.788	-0.080	-0.020
00:00:05.790	-0.180	0.000
00:00:05.792	-0.175	0.010
00:00:05.794	-0.120	0.015
00:00:05.796	-0.150	0.010
00:00:05.798	-0.260	-0.005
00:00:05.800	-0.190	-0.030
00:00:05.802	-0.230	-0.050
00:00:05.804	-0.175	-0.070
00:00:05.806	-0.090	-0.080
00:00:05.808	-0.080	-0.080
00:00:05.810	-0.095	-0.070
00:00:05.812	-0.220	-0.050
00:00:05.814	-0.195	-0.025
00:00:05.816	-0.315	-0.005
00:00:05.818	-0.230	0.015
00:00:05.820	-0.110	0.025
00:00:05.822	-0.065	0.025
00:00:05.824	-0.080	0.020
00:00:05.826	0.025	0.010
00:00:05.828	0.070	0.000
00:00:05.830	-0.165	-0.005
00:00:05.832	-0.245	-0.005
00:00:05.834	-0.190	-0.005
00:00:05.836	-0.265	0.000
00:00:05.838	-0.265	0.005
00:00:05.840	-0.135	0.010
00:00:05.842	-0.035	0.010
00:00:05.844	-0.075	0.010
00:00:05.846	0.045	0.005
00:00:05.848	-0.060	0.000
00:00:05.850	-0.105	-0.005
00:00:05.852	-0.175	-0.010
00:00:05.854	-0.170	-0.010
00:00:05.856	-0.260	-0.005
00:00:05.858	-0.265	0.000
00:00:05.860	-0.170	0.005
00:00:05.862	-0.130	0.005
00:00:05.864	-0.055	0.010
00:00:05.866	0.020	0.010
00:00:05.868	0.010	0.010
00:00:05.870	-0.075	0.015
00:00:05.872	-0.200	0.020
00:00:05.874	-0.200	0.025
00:00:05.876	-0.185	0.035
00:00:05.878	-0.165	0.045
00:00:05.880	-0.095	0.055
00:00:05.882	-0.030	0.060
00:00:05.884	0.000	0.060
00:00:05.886	0.090	0.055
00:00:05.888	-0.020	0.050
00:00:05.890	-0.155	0.040
00:00:05.892	-0.150	0.030
00:00:05.894	-0.140	0.030
00:00:05.896	-0.135	0.030
00:00:05.898	-0.195	0.040
00:00:05.900	-0.135	0.055
00:00:05.902	-0.015	0.075
00:00:05.904	0.085	0.095
00:00:05.906	0.055	0.105
00:00:05.908	0.140	0.115
00:00:05.910	0.010	0.115
00:00:05.912	-0.070	0.105
00:00:05.914	-0.160	0.095
00:00:05.916	-0.205	0.080
00:00:05.918	-0.255	0.075
00:00:05.920	-0.070	0.075
00:00:05.922	-0.020	0.085
00:00:05.924	0.110	0.110
00:00:05.926	0.185	0.140
00:00:05.928	0.155	0.175
00:00:05.930	0.085	0.205
00:00:05.932	0.095	0.230
00:00:05.934	0.030	0.245
00:00:05.936	-0.040	0.245
00:00:05.938	0.010	0.240
00:00:05.940	0.040	0.225
00:00:05.942	0.165	0.205
00:00:05.944	0.155	0.190
00:00:05.946	0.105	0.180
00:00:05.948	0.115	0.175
00:00:05.950	0.105	0.180
00:00:05.952	0.010	0.190
00:00:05.954	-0.060	0.200
00:00:05.956	0.020	0.215
00:00:05.958	-0.070	0.220
00:00:05.960	0.075	0.225
00:00:05.962	0.130	0.225
00:00:05.964	0.215	0.225
00:00:05.966	0.200	0.220
00:00:05.968	0.155	0.210
00:00:05.970	0.055	0.210
00:00:05.972	0.030	0.205
00:00:05.974	-0.060	0.205
00:00:05.976	-0.040	0.200
00:00:05.978	-0.020	0.195
00:00:05.980	0.070	0.190
00:00:05.982	0.085	0.175
00:00:05.984	0.125	0.160
00:00:05.986	0.065	0.140
00:00:05.988	0.050	0.120
00:00:05.990	0.015	0.100
00:00:05.992	-0.080	0.085
00:00:05.994	-0.215	0.070
00:00:05.996	-0.185	0.065
00:00:05.998	-0.145	0.060
00:00:06.000	-0.070	0.055
00:00:06.002	-0.005	0.055
00:00:06.004	0.080	0.050
00:00:06.006	-0.015	0.045
00:00:06.008	-0.045	0.035
00:00:06.010	-0.130	0.025
00:00:06.012	-0.170	0.015
00:00:06.014	-0.285	0.005
00:00:06.016	-0.225	0.000
00:00:06.018	-0.205	0.000
00:00:06.020	-0.105	0.000
00:00:06.022	-0.075	0.000
00:00:06.024	-0.040	0.000
00:00:06.026	-0.045	0.000
00:00:06.028	-0.105	-0.005
00:00:06.030	-0.205	-0.010
00:00:06.032	-0.145	-0.020
00:00:06.034	-0.285	-0.025
00:00:06.036	-0.315	-0.035
00:00:06.038	-0.250	-0.035
00:00:06.040	-0.145	-0.035
00:00:06.042	-0.075	-0.030
00:00:06.044	-0.020	-0.025
00:00:06.046	-0.070	-0.020
00:00:06.048	-0.135	-0.015
00:00:06.050	-0.160	-0.015
00:00:06.052	-0.175	-0.020
00:00:06.054	-0.320	-0.030
00:00:06.056	-0.275	-0.045
00:00:06.058	-0.215	-0.060
00:00:06.060	-0.200	-0.075
00:00:06.062	-0.175	-0.080
00:00:06.064	-0.110	-0.085
00:00:06.066	-0.115	-0.085
00:00:06.068	-0.160	-0.080
00:00:06.070	-0.235	-0.070
00:00:06.072	-0.210	-0.055
00:00:06.074	-0.300	-0.045
00:00:06.076	-0.270	-0.040
00:00:06.078	-0.240	-0.035
00:00:06.080	-0.210	-0.035
00:00:06.082	-0.155	-0.035
00:00:06.084	-0.030	-0.035
00:00:06.086	-0.090	-0.040
00:00:06.088	-0.130	-0.040
00:00:06.090	-0.190	-0.035
00:00:06.092	-0.225	-0.030
00:00:06.094	-0.310	-0.025
00:00:06.096	-0.265	-0.015
00:00:06.098	-0.135	-0.005
00:00:06.100	-0.105	-0.005
00:00:06.102	-0.095	-0.005
00:00:06.104	-0.025	-0.010
00:00:06.106	-0.090	-0.020
00:00:06.108	-0.145	-0.035
00:00:06.110	-0.225	-0.045
00:00:06.112	-0.265	-0.060
00:00:06.114	-0.395	-0.070
00:00:06.116	-0.275	-0.075
00:00:06.118	-0.240	-0.075
00:00:06.120	-0.215	-0.070
00:00:06.122	-0.090	-0.060
00:00:06.124	-0.025	-0.045
00:00:06.126	-0.045	-0.035
00:00:06.128	-0.140	-0.025
00:00:06.130	-0.185	-0.015
00:00:06.132	-0.265	-0.010
00:00:06.134	-0.280	-0.005
00:00:06.136	-0.210	-0.005
00:00:06.138	-0.165	-0.010
00:00:06.140	-0.120	-0.015
00:00:06.142	-0.065	-0.025
00:00:06.144	-0.035	-0.030
00:00:06.146	-0.100	-0.040
00:00:06.148	-0.175	-0.050
00:00:06.150	-0.295	-0.060
00:00:06.152	-0.285	-0.065
00:00:06.154	-0.350	-0.070
00:00:06.156	-0.285	-0.070
00:00:06.158	-0.210	-0.065
00:00:06.160	-0.135	-0.060
00:00:06.162	-0.075	-0.055
00:00:06.164	-0.085	-0.045
00:00:06.166	-0.080	-0.040
00:00:06.168	-0.165	-0.030
00:00:06.170	-0.230	-0.025
00:00:06.172	-0.285	-0.015
00:00:06.174	-0.250	-0.010
00:00:06.176	-0.180	-0.005
00:00:06.178	-0.165	0.000
00:00:06.180	-0.075	0.000
00:00:06.182	-0.040	0.000
00:00:06.184	-0.065	0.000
00:00:06.186	-0.030	-0.005
00:00:06.188	-0.160	-0.015
00:00:06.190	-0.240	-0.025
00:00:06.192	-0.250	-0.035
00:00:06.194	-0.370	-0.045
00:00:06.196	-0.295	-0.055
00:00:06.198	-0.150	-0.060
00:00:06.200	-0.115	-0.065
00:00:06.202	-0.080	-0.065
00:00:06.204	-0.095	-0.065
00:00:06.206	-0.145	-0.055
00:00:06.208	-0.165	-0.050
00:00:06.210	-0.265	-0.040
00:00:06.212	-0.315	-0.030
00:00:06.214	-0.250	-0.020
00:00:06.216	-0.265	-0.010
00:00:06.218	-0.115	-0.005
00:00:06.220	-0.040	0.000
00:00:06.222	-0.070	0.000
00:00:06.224	-0.055	-0.005
00:00:06.226	-0.060	-0.015
00:00:06.228	-0.100	-0.025
00:00:06.230	-0.195	-0.040
00:00:06.232	-0.360	-0.050
00:00:06.234	-0.310	-0.065
00:00:06.236	-0.330	-0.075
00:00:06.238	-0.275	-0.075
00:00:06.240	-0.200	-0.070
00:00:06.242	-0.050	-0.060
00:00:06.244	-0.040	-0.045
00:00:06.246	-0.080	-0.030
00:00:06.248	-0.170	-0.020
00:00:06.250	-0.200	-0.010
00:00:06.252	-0.265	-0.010
00:00:06.254	-0.310	-0.015
00:00:06.256	-0.290	-0.025
00:00:06.258	-0.210	-0.040
00:00:06.260	-0.115	-0.055
00:00:06.262	-0.085	-0.060
00:00:06.264	-0.120	-0.060
00:00:06.266	-0.110	-0.055
00:00:06.268	-0.215	-0.045
00:00:06.270	-0.165	-0.030
00:00:06.272	-0.270	-0.015
00:00:06.274	-0.315	-0.010
00:00:06.276	-0.235	-0.005
00:00:06.278	-0.180	-0.010
00:00:06.280	-0.100	-0.025
00:00:06.282	-0.030	-0.040
00:00:06.284	-0.105	-0.055
00:00:06.286	-0.130	-0.065
00:00:06.288	-0.225	-0.070
00:00:06.290	-0.220	-0.065
00:00:06.292	-0.340	-0.055
00:00:06.294	-0.270	-0.040
00:00:06.296	-0.235	-0.025
00:00:06.298	-0.175	-0.015
00:00:06.300	-0.120	-0.010
00:00:06.302	-0.050	-0.010
00:00:06.304	-0.020	-0.015
00:00:06.306	-0.055	-0.025
00:00:06.308	-0.170	-0.035
00:00:06.310	-0.245	-0.045
00:00:06.312	-0.310	-0.055
00:00:06.314	-0.370	-0.060
00:00:06.316	-0.285	-0.060
00:00:06.318	-0.185	-0.060
00:00:06.320	-0.175	-0.065
00:00:06.322	-0.055	-0.065
00:00:06.324	-0.090	-0.065
00:00:06.326	-0.150	-0.065
00:00:06.328	-0.175	-0.060
00:00:06.330	-0.225	-0.055
00:00:06.332	-0.330	-0.045
00:00:06.334	-0.285	-0.030
00:00:06.336	-0.215	-0.015
00:00:06.338	-0.145	0.000
00:00:06.340	-0.110	0.015
00:00:06.342	-0.005	0.020
00:00:06.344	-0.005	0.020
00:00:06.346	-0.045	0.010
00:00:06.348	-0.140	-0.005
00:00:06.350	-0.200	-0.020
00:00:06.352	-0.345	-0.040
00:00:06.354	-0.370	-0.050
00:00:06.356	-0.295	-0.055
00:00:06.358	-0.160	-0.055
00:00:06.360	-0.130	-0.045
00:00:06.362	0.025	-0.035
00:00:06.364	-0.035	-0.020
00:00:06.366	-0.070	-0.010
00:00:06.368	-0.160	0.000
00:00:06.370	-0.220	0.005
00:00:06.372	-0.340	0.005
00:00:06.374	-0.270	0.000
00:00:06.376	-0.165	0.000
00:00:06.378	-0.055	-0.005
00:00:06.380	-0.065	0.000
00:00:06.382	0.030	0.000
00:00:06.384	0.015	0.005
00:00:06.386	-0.105	0.015
00:00:06.388	-0.205	0.020
00:00:06.390	-0.215	0.025
00:00:06.392	-0.235	0.025
00:00:06.394	-0.235	0.020
00:00:06.396	-0.190	0.010
00:00:06.398	-0.125	-0.005
00:00:06.400	-0.045	-0.015
00:00:06.402	-0.035	-0.030
00:00:06.404	-0.125	-0.045
00:00:06.406	-0.180	-0.055
00:00:06.408	-0.215	-0.060
00:00:06.410	-0.255	-0.065
00:00:06.412	-0.280	-0.060
00:00:06.414	-0.300	-0.055
00:00:06.416	-0.215	-0.050
00:00:06.418	-0.125	-0.040
00:00:06.420	-0.060	-0.030
00:00:06.422	-0.110	-0.025
00:00:06.424	-0.155	-0.020
00:00:06.426	-0.080	-0.015
00:00:06.428	-0.175	-0.020
00:00:06.430	-0.215	-0.025
00:00:06.432	-0.275	-0.035
00:00:06.434	-0.295	-0.045
00:00:06.436	-0.275	-0.060
00:00:06.438	-0.190	-0.070
00:00:06.440	-0.180	-0.080
00:00:06.442	-0.125	-0.090
00:00:06.444	-0.145	-0.090
00:00:06.446	-0.215	-0.090
00:00:06.448	-0.265	-0.085
00:00:06.450	-0.265	-0.075
00:00:06.452	-0.200	-0.065
00:00:06.454	-0.270	-0.050
00:00:06.456	-0.325	-0.030
00:00:06.458	-0.155	-0.010
00:00:06.460	-0.030	0.005
00:00:06.462	0.000	0.015
00:00:06.464	-0.040	0.020
00:00:06.466	-0.120	0.020
00:00:06.468	-0.135	0.010
00:00:06.470	-0.205	-0.005
00:00:06.472	-0.295	-0.020
00:00:06.474	-0.270	-0.040
00:00:06.476	-0.215	-0.050
00:00:06.478	-0.220	-0.050
00:00:06.480	-0.150	-0.035
00:00:06.482	-0.015	-0.010
00:00:06.484	0.005	0.025
00:00:06.486	0.000	0.070
00:00:06.488	-0.005	0.120
00:00:06.490	0.005	0.165
00:00:06.492	-0.040	0.205
00:00:06.494	-0.060	0.230
00:00:06.496	0.030	0.250
00:00:06.498	0.160	0.255
00:00:06.500	0.260	0.250
00:00:06.502	0.215	0.240
00:00:06.504	0.130	0.215
00:00:06.506	0.080	0.190
00:00:06.508	0.050	0.155
00:00:06.510	-0.080	0.110
00:00:06.512	-0.155	0.065
00:00:06.514	-0.270	0.010
00:00:06.516	-0.320	-0.045
00:00:06.518	-0.285	-0.095
00:00:06.520	-0.230	-0.135
00:00:06.522	-0.275	-0.160
00:00:06.524	-0.180	-0.165
00:00:06.526	-0.225	-0.160
00:00:06.528	-0.300	-0.135
00:00:06.530	-0.320	-0.105
00:00:06.532	-0.280	-0.070
00:00:06.534	-0.245	-0.045
00:00:06.536	-0.165	-0.025
00:00:06.538	-0.155	-0.020
00:00:06.540	-0.065	-0.030
00:00:06.542	-0.090	-0.045
00:00:06.544	-0.190	-0.065
00:00:06.546	-0.290	-0.080
00:00:06.548	-0.210	-0.090
00:00:06.550	-0.300	-0.090
00:00:06.552	-0.300	-0.085
00:00:06.554	-0.305	-0.075
00:00:06.556	-0.210	-0.060
00:00:06.558	-0.135	-0.045
00:00:06.560	-0.090	-0.030
00:00:06.562	-0.070	-0.025
00:00:06.564	-0.070	-0.025
00:00:06.566	-0.080	-0.025
00:00:06.568	-0.195	-0.025
00:00:06.570	-0.275	-0.030
00:00:06.572	-0.300	-0.030
00:00:06.574	-0.340	-0.035
00:00:06.576	-0.215	-0.035
00:00:06.578	-0.100	-0.040
00:00:06.580	0.010	-0.040
00:00:06.582	0.010	-0.040
00:00:06.584	-0.175	-0.040
00:00:06.586	-0.200	-0.040
00:00:06.588	-0.200	-0.030
00:00:06.590	-0.295	-0.020
00:00:06.592	-0.300	-0.010
00:00:06.594	-0.175	0.005
00:00:06.596	-0.065	0.015
00:00:06.598	-0.080	0.020
00:00:06.600	0.050	0.020
00:00:06.602	-0.040	0.010
00:00:06.604	-0.115	0.000
00:00:06.606	-0.180	-0.015
00:00:06.608	-0.180	-0.030
00:00:06.610	-0.315	-0.040
00:00:06.612	-0.305	-0.040
00:00:06.614	-0.220	-0.040
00:00:06.616	-0.090	-0.030
00:00:06.618	-0.130	-0.020
00:00:06.620	-0.055	-0.010
00:00:06.622	0.040	0.000
00:00:06.624	-0.065	0.005
00:00:06.626	-0.215	0.005
00:00:06.628	-0.195	0.005
00:00:06.630	-0.300	0.000
00:00:06.632	-0.235	-0.010
00:00:06.634	-0.225	-0.010
00:00:06.636	-0.100	-0.010
00:00:06.638	-0.095	-0.005
00:00:06.640	-0.005	0.005
00:00:06.642	0.020	0.020
00:00:06.644	-0.040	0.035
00:00:06.646	-0.140	0.050
00:00:06.648	-0.115	0.060
00:00:06.650	-0.280	0.070
00:00:06.652	-0.165	0.070
00:00:06.654	-0.115	0.060
00:00:06.656	-0.090	0.055
00:00:06.658	-0.045	0.040
00:00:06.660	0.055	0.030
00:00:06.662	-0.020	0.025
00:00:06.664	-0.090	0.025
00:00:06.666	-0.215	0.030
00:00:06.668	-0.140	0.040
00:00:06.670	-0.170	0.050
00:00:06.672	-0.175	0.060
00:00:06.674	-0.140	0.070
00:00:06.676	-0.075	0.070
00:00:06.678	-0.035	0.070
00:00:06.680	0.080	0.065
00:00:06.682	0.005	0.055
00:00:06.684	-0.075	0.050
00:00:06.686	-0.160	0.045
00:00:06.688	-0.150	0.045
00:00:06.690	-0.200	0.055
00:00:06.692	-0.135	0.065
00:00:06.694	-0.065	0.085
00:00:06.696	0.010	0.100
00:00:06.698	0.025	0.115
00:00:06.700	0.020	0.125
00:00:06.702	0.150	0.130
00:00:06.704	0.045	0.130
00:00:06.706	-0.010	0.125
00:00:06.708	-0.120	0.120
00:00:06.710	-0.185	0.120
00:00:06.712	-0.225	0.120
00:00:06.714	-0.030	0.125
00:00:06.716	0.100	0.135
00:00:06.718	0.080	0.150
00:00:06.720	0.175	0.165
00:00:06.722	0.190	0.180
00:00:06.724	0.115	0.195
00:00:06.726	0.035	0.205
00:00:06.728	-0.025	0.215
00:00:06.730	-0.070	0.215
00:00:06.732	-0.060	0.210
00:00:06.734	0.025	0.205
00:00:06.736	0.100	0.200
00:00:06.738	0.135	0.195
00:00:06.740	0.195	0.190
00:00:06.742	0.130	0.190
00:00:06.744	0.100	0.190
00:00:06.746	0.045	0.190
00:00:06.748	-0.025	0.195
00:00:06.750	-0.060	0.195
00:00:06.752	-0.015	0.200
00:00:06.754	0.050	0.205
00:00:06.756	0.150	0.210
00:00:06.758	0.140	0.210
00:00:06.760	0.150	0.205
00:00:06.762	0.170	0.200
00:00:06.764	0.085	0.195
00:00:06.766	-0.050	0.180
00:00:06.768	-0.135	0.170
00:00:06.770	-0.135	0.155
00:00:06.772	0.050	0.140
00:00:06.774	0.100	0.125
00:00:06.776	-0.085	0.115
00:00:06.778	-0.055	0.100
00:00:06.780	0.060	0.090
00:00:06.782	0.030	0.075
00:00:06.784	-0.070	0.065
00:00:06.786	-0.140	0.045
00:00:06.788	-0.225	0.025
00:00:06.790	-0.285	0.005
00:00:06.792	-0.285	-0.015
00:00:06.794	-0.145	-0.030
00:00:06.796	-0.130	-0.045
00:00:06.798	-0.095	-0.055
00:00:06.800	-0.115	-0.055
00:00:06.802	-0.140	-0.055
00:00:06.804	-0.210	-0.050
00:00:06.806	-0.175	-0.040
00:00:06.808	-0.270	-0.035
00:00:06.810	-0.305	-0.030
00:00:06.812	-0.250	-0.030
00:00:06.814	-0.150	-0.030
00:00:06.816	-0.125	-0.035
00:00:06.818	-0.080	-0.040
00:00:06.820	-0.060	-0.045
00:00:06.822	-0.120	-0.050
00:00:06.824	-0.260	-0.050
00:00:06.826	-0.230	-0.050
00:00:06.828	-0.300	-0.050
00:00:06.830	-0.305	-0.050
00:00:06.832	-0.250	-0.055
00:00:06.834	-0.205	-0.060
00:00:06.836	-0.170	-0.060
00:00:06.838	-0.085	-0.065
00:00:06.840	-0.070	-0.065
00:00:06.842	-0.105	-0.065
00:00:06.844	-0.225	-0.065
00:00:06.846	-0.215	-0.055
00:00:06.848	-0.245	-0.050
00:00:06.850	-0.315	-0.045
00:00:06.852	-0.280	-0.040
00:00:06.854	-0.160	-0.040
00:00:06.856	-0.135	-0.040
00:00:06.858	-0.060	-0.045
00:00:06.860	-0.055	-0.050
00:00:06.862	-0.150	-0.060
00:00:06.864	-0.265	-0.065
00:00:06.866	-0.225	-0.075
00:00:06.868	-0.345	-0.075
00:00:06.870	-0.320	-0.075
00:00:06.872	-0.325	-0.075
00:00:06.874	-0.200	-0.070
00:00:06.876	-0.085	-0.060
00:00:06.878	-0.070	-0.050
00:00:06.880	-0.015	-0.040
00:00:06.882	-0.105	-0.030
00:00:06.884	-0.200	-0.025
00:00:06.886	-0.240	-0.020
00:00:06.888	-0.280	-0.025
00:00:06.890	-0.290	-0.035
00:00:06.892	-0.260	-0.045
00:00:06.894	-0.200	-0.055
00:00:06.896	-0.190	-0.070
00:00:06.898	-0.070	-0.075
00:00:06.900	-0.060	-0.080
00:00:06.902	-0.145	-0.075
00:00:06.904	-0.260	-0.070
00:00:06.906	-0.260	-0.060
00:00:06.908	-0.300	-0.050
00:00:06.910	-0.255	-0.040
00:00:06.912	-0.210	-0.035
00:00:06.914	-0.190	-0.030
00:00:06.916	-0.135	-0.035
00:00:06.918	-0.080	-0.040
00:00:06.920	-0.065	-0.045
00:00:06.922	-0.085	-0.050
00:00:06.924	-0.190	-0.050
00:00:06.926	-0.195	-0.050
00:00:06.928	-0.310	-0.050
00:00:06.930	-0.265	-0.045
00:00:06.932	-0.290	-0.040
00:00:06.934	-0.205	-0.040
00:00:06.936	-0.180	-0.045
00:00:06.938	-0.040	-0.050
00:00:06.940	-0.070	-0.055
00:00:06.942	-0.135	-0.060
00:00:06.944	-0.185	-0.060
00:00:06.946	-0.220	-0.060
00:00:06.948	-0.325	-0.050
00:00:06.950	-0.290	-0.040
00:00:06.952	-0.215	-0.030
00:00:06.954	-0.170	-0.015
00:00:06.956	-0.085	-0.010
00:00:06.958	-0.015	-0.005
00:00:06.960	-0.010	-0.005
00:00:06.962	-0.095	-0.010
00:00:06.964	-0.170	-0.020
00:00:06.966	-0.210	-0.025
00:00:06.968	-0.350	-0.035
00:00:06.970	-0.335	-0.040
00:00:06.972	-0.180	-0.040
00:00:06.974	-0.150	-0.040
00:00:06.976	-0.135	-0.040
00:00:06.978	0.000	-0.040
00:00:06.980	-0.090	-0.045
00:00:06.982	-0.120	-0.050
00:00:06.984	-0.245	-0.055
00:00:06.986	-0.305	-0.060
00:00:06.988	-0.320	-0.065
00:00:06.990	-0.255	-0.065
00:00:06.992	-0.210	-0.060
00:00:06.994	-0.120	-0.055
00:00:06.996	-0.145	-0.050
00:00:06.998	-0.130	-0.040
00:00:07.000	-0.070	-0.040
00:00:07.002	-0.130	-0.040
00:00:07.004	-0.195	-0.045
00:00:07.006	-0.250	-0.050
00:00:07.008	-0.380	-0.060
00:00:07.010	-0.320	-0.060
00:00:07.012	-0.230	-0.065
00:00:07.014	-0.195	-0.060
00:00:07.016	-0.055	-0.055
00:00:07.018	-0.085	-0.045
00:00:07.020	-0.030	-0.040
00:00:07.022	-0.070	-0.035
00:00:07.024	-0.210	-0.040
00:00:07.026	-0.340	-0.045
00:00:07.028	-0.350	-0.050
00:00:07.030	-0.295	-0.060
00:00:07.032	-0.215	-0.065
00:00:07.034	-0.185	-0.065
00:00:07.036	-0.060	-0.060
00:00:07.038	0.015	-0.050
00:00:07.040	-0.075	-0.040
00:00:07.042	-0.160	-0.030
00:00:07.044	-0.210	-0.025
00:00:07.046	-0.290	-0.025
00:00:07.048	-0.265	-0.030
00:00:07.050	-0.270	-0.040
00:00:07.052	-0.275	-0.050
00:00:07.054	-0.185	-0.060
00:00:07.056	-0.080	-0.065
00:00:07.058	-0.065	-0.065
00:00:07.060	-0.070	-0.060
00:00:07.062	-0.090	-0.050
00:00:07.064	-0.215	-0.040
00:00:07.066	-0.340	-0.030
00:00:07.068	-0.340	-0.025
00:00:07.070	-0.255	-0.025
00:00:07.072	-0.175	-0.030
00:00:07.074	-0.100	-0.040
00:00:07.076	-0.155	-0.050
00:00:07.078	-0.065	-0.060
00:00:07.080	-0.125	-0.070
00:00:07.082	-0.230	-0.070
00:00:07.084	-0.220	-0.070
00:00:07.086	-0.325	-0.070
00:00:07.088	-0.315	-0.070
00:00:07.090	-0.270	-0.065
00:00:07.092	-0.235	-0.060
00:00:07.094	-0.175	-0.060
00:00:07.096	-0.090	-0.050
00:00:07.098	-0.040	-0.045
00:00:07.100	-0.115	-0.035
00:00:07.102	-0.155	-0.020
00:00:07.104	-0.105	-0.010
00:00:07.106	-0.235	-0.005
00:00:07.108	-0.290	-0.005
00:00:07.110	-0.265	-0.005
00:00:07.112	-0.170	-0.015
00:00:07.114	-0.135	-0.030
00:00:07.116	-0.060	-0.040
00:00:07.118	-0.025	-0.045
00:00:07.120	-0.095	-0.045
00:00:07.122	-0.155	-0.040
00:00:07.124	-0.190	-0.030
00:00:07.126	-0.315	-0.010
00:00:07.128	-0.285	0.010
00:00:07.130	-0.150	0.020
00:00:07.132	-0.055	0.030
00:00:07.134	-0.065	0.035
00:00:07.136	-0.035	0.030
00:00:07.138	-0.045	0.020
00:00:07.140	-0.020	0.010
00:00:07.142	-0.140	0.000
00:00:07.144	-0.210	-0.005
00:00:07.146	-0.270	-0.010
00:00:07.148	-0.330	-0.015
00:00:07.150	-0.175	-0.020
00:00:07.152	-0.140	-0.020
00:00:07.154	-0.160	-0.025
00:00:07.156	-0.095	-0.035
00:00:07.158	-0.060	-0.040
00:00:07.160	-0.125	-0.045
00:00:07.162	-0.120	-0.045
00:00:07.164	-0.180	-0.040
00:00:07.166	-0.340	-0.030
00:00:07.168	-0.255	-0.020
00:00:07.170	-0.210	-0.010
00:00:07.172	-0.175	-0.005
00:00:07.174	-0.140	-0.005
00:00:07.176	0.000	-0.010
00:00:07.178	-0.100	-0.020
00:00:07.180	-0.075	-0.040
00:00:07.182	-0.165	-0.055
00:00:07.184	-0.270	-0.065
00:00:07.186	-0.410	-0.075
00:00:07.188	-0.325	-0.075
00:00:07.190	-0.250	-0.070
00:00:07.192	-0.195	-0.060
00:00:07.194	-0.180	-0.050
00:00:07.196	-0.065	-0.040
00:00:07.198	-0.065	-0.035
00:00:07.200	-0.130	-0.040
00:00:07.202	-0.205	-0.045
00:00:07.204	-0.225	-0.050
00:00:07.206	-0.380	-0.055
00:00:07.208	-0.290	-0.055
00:00:07.210	-0.205	-0.055
00:00:07.212	-0.150	-0.045
00:00:07.214	-0.195	-0.030
00:00:07.216	-0.035	-0.010
00:00:07.218	-0.005	0.005
00:00:07.220	-0.075	0.020
00:00:07.222	-0.140	0.025
00:00:07.224	-0.165	0.020
00:00:07.226	-0.225	0.010
00:00:07.228	-0.255	-0.005
00:00:07.230	-0.310	-0.020
00:00:07.232	-0.190	-0.035
00:00:07.234	-0.120	-0.045
00:00:07.236	-0.070	-0.045
00:00:07.238	-0.120	-0.030
00:00:07.240	-0.110	-0.010
00:00:07.242	-0.125	0.020
00:00:07.244	-0.110	0.050
00:00:07.246	-0.175	0.085
00:00:07.248	-0.080	0.120
00:00:07.250	0.000	0.150
00:00:07.252	0.035	0.170
00:00:07.254	0.025	0.185
00:00:07.256	0.095	0.195
00:00:07.258	0.190	0.195
00:00:07.260	0.180	0.190
00:00:07.262	0.015	0.170
00:00:07.264	-0.015	0.150
00:00:07.266	-0.100	0.115
00:00:07.268	-0.205	0.070
00:00:07.270	-0.215	0.020
00:00:07.272	-0.220	-0.035
00:00:07.274	-0.270	-0.090
00:00:07.276	-0.195	-0.135
00:00:07.278	-0.240	-0.165
00:00:07.280	-0.310	-0.175
00:00:07.282	-0.305	-0.170
00:00:07.284	-0.255	-0.145
00:00:07.286	-0.355	-0.115
00:00:07.288	-0.295	-0.075
00:00:07.290	-0.220	-0.045
00:00:07.292	-0.150	-0.020
00:00:07.294	-0.145	-0.010
00:00:07.296	-0.125	-0.015
00:00:07.298	-0.055	-0.025
00:00:07.300	-0.110	-0.045
00:00:07.302	-0.260	-0.060
00:00:07.304	-0.305	-0.070
00:00:07.306	-0.390	-0.070
00:00:07.308	-0.250	-0.060
00:00:07.310	-0.180	-0.045
00:00:07.312	-0.105	-0.025
00:00:07.314	-0.135	-0.010
00:00:07.316	-0.110	-0.005
00:00:07.318	-0.040	-0.005
00:00:07.320	-0.120	-0.015
00:00:07.322	-0.220	-0.030
00:00:07.324	-0.260	-0.045
00:00:07.326	-0.335	-0.060
00:00:07.328	-0.280	-0.065
00:00:07.330	-0.260	-0.060
00:00:07.332	-0.210	-0.050
00:00:07.334	-0.085	-0.040
00:00:07.336	-0.065	-0.030
00:00:07.338	-0.010	-0.020
00:00:07.340	-0.155	-0.015
00:00:07.342	-0.255	-0.020
00:00:07.344	-0.230	-0.030
00:00:07.346	-0.320	-0.045
00:00:07.348	-0.350	-0.060
00:00:07.350	-0.320	-0.070
00:00:07.352	-0.220	-0.080
00:00:07.354	-0.085	-0.080
00:00:07.356	-0.060	-0.075
00:00:07.358	-0.120	-0.060
00:00:07.360	-0.240	-0.040
00:00:07.362	-0.200	-0.020
00:00:07.364	-0.210	0.005
00:00:07.366	-0.255	0.025
00:00:07.368	-0.270	0.040
00:00:07.370	-0.070	0.045
00:00:07.372	-0.060	0.045
00:00:07.374	-0.035	0.040
00:00:07.376	-0.055	0.030
00:00:07.378	-0.050	0.015
00:00:07.380	-0.125	0.000
00:00:07.382	-0.235	-0.005
00:00:07.384	-0.245	-0.010
00:00:07.386	-0.220	-0.005
00:00:07.388	-0.230	0.000
00:00:07.390	-0.185	0.010
00:00:07.392	-0.105	0.020
00:00:07.394	0.045	0.025
00:00:07.396	-0.035	0.030
00:00:07.398	-0.050	0.025
00:00:07.400	-0.105	0.015
00:00:07.402	-0.175	0.005
00:00:07.404	-0.250	0.000
00:00:07.406	-0.340	-0.005
00:00:07.408	-0.295	-0.005
00:00:07.410	-0.160	0.000
00:00:07.412	-0.090	0.010
00:00:07.414	-0.020	0.020
00:00:07.416	0.020	0.035
00:00:07.418	0.055	0.045
00:00:07.420	-0.060	0.055
00:00:07.422	-0.125	0.055
00:00:07.424	-0.245	0.055
00:00:07.426	-0.290	0.050
00:00:07.428	-0.275	0.045
00:00:07.430	-0.160	0.040
00:00:07.432	-0.110	0.035
00:00:07.434	0.070	0.035
00:00:07.436	0.055	0.040
00:00:07.438	-0.055	0.050
00:00:07.440	-0.085	0.060
00:00:07.442	-0.085	0.070
00:00:07.444	-0.185	0.085
00:00:07.446	-0.185	0.100
00:00:07.448	-0.135	0.110
00:00:07.450	-0.050	0.120
00:00:07.452	-0.055	0.120
00:00:07.454	0.105	0.125
00:00:07.456	0.120	0.120
00:00:07.458	0.070	0.115
00:00:07.460	-0.035	0.115
00:00:07.462	-0.165	0.110
00:00:07.464	-0.280	0.110
00:00:07.466	-0.160	0.120
00:00:07.468	-0.085	0.125
00:00:07.470	-0.025	0.140
00:00:07.472	0.060	0.155
00:00:07.474	0.155	0.175
00:00:07.476	0.185	0.185
00:00:07.478	0.135	0.195
00:00:07.480	0.060	0.205
00:00:07.482	-0.035	0.205
00:00:07.484	-0.105	0.200
00:00:07.486	-0.100	0.195
00:00:07.488	-0.025	0.190
00:00:07.490	0.075	0.185
00:00:07.492	0.040	0.185
00:00:07.494	0.195	0.185
00:00:07.496	0.205	0.190
00:00:07.498	0.105	0.200
00:00:07.500	-0.045	0.205
00:00:07.502	0.005	0.215
00:00:07.504	-0.105	0.220
00:00:07.506	-0.070	0.220
00:00:07.508	-0.025	0.220
00:00:07.510	0.055	0.215
00:00:07.512	0.100	0.210
00:00:07.514	0.170	0.205
00:00:07.516	0.150	0.195
00:00:07.518	0.080	0.185
00:00:07.520	0.000	0.175
00:00:07.522	-0.005	0.170
00:00:07.524	-0.040	0.160
00:00:07.526	-0.185	0.150
00:00:07.528	-0.170	0.140
00:00:07.530	-0.120	0.130
00:00:07.532	0.000	0.120
00:00:07.534	0.145	0.110
00:00:07.536	0.100	0.100
00:00:07.538	-0.020	0.090
00:00:07.540	-0.100	0.080
00:00:07.542	-0.115	0.065
00:00:07.544	-0.210	0.055
00:00:07.546	-0.335	0.045
00:00:07.548	-0.240	0.030
00:00:07.550	-0.185	0.020
00:00:07.552	-0.125	0.010
00:00:07.554	0.015	0.000
00:00:07.556	-0.035	-0.010
00:00:07.558	-0.130	-0.015
00:00:07.560	-0.230	-0.015
00:00:07.562	-0.280	-0.020
00:00:07.564	-0.305	-0.020
00:00:07.566	-0.285	-0.020
00:00:07.568	-0.200	-0.025
00:00:07.570	-0.135	-0.025
00:00:07.572	-0.165	-0.030
00:00:07.574	-0.130	-0.035
00:00:07.576	-0.090	-0.045
00:00:07.578	-0.175	-0.050
00:00:07.580	-0.290	-0.055
00:00:07.582	-0.295	-0.060
00:00:07.584	-0.310	-0.060
00:00:07.586	-0.345	-0.060
00:00:07.588	-0.250	-0.055
00:00:07.590	-0.205	-0.055
00:00:07.592	-0.180	-0.050
00:00:07.594	-0.170	-0.050
00:00:07.596	-0.135	-0.045
00:00:07.598	-0.130	-0.045
00:00:07.600	-0.210	-0.045
00:00:07.602	-0.330	-0.050
00:00:07.604	-0.365	-0.050
00:00:07.606	-0.365	-0.050
00:00:07.608	-0.260	-0.055
00:00:07.610	-0.245	-0.055
00:00:07.612	-0.190	-0.055
00:00:07.614	-0.055	-0.055
00:00:07.616	-0.090	-0.055
00:00:07.618	-0.235	-0.050
00:00:07.620	-0.325	-0.045
00:00:07.622	-0.295	-0.040
00:00:07.624	-0.285	-0.030
00:00:07.626	-0.300	-0.025
00:00:07.628	-0.255	-0.020
00:00:07.630	-0.040	-0.020
00:00:07.632	-0.100	-0.020
00:00:07.634	-0.135	-0.025
00:00:07.636	-0.210	-0.030
00:00:07.638	-0.205	-0.040
00:00:07.640	-0.285	-0.045
00:00:07.642	-0.290	-0.050
00:00:07.644	-0.295	-0.050
00:00:07.646	-0.325	-0.050
00:00:07.648	-0.320	-0.045
00:00:07.650	-0.200	-0.040
00:00:07.652	-0.065	-0.035
00:00:07.654	-0.075	-0.030
00:00:07.656	-0.145	-0.030
00:00:07.658	-0.200	-0.035
00:00:07.660	-0.260	-0.040
00:00:07.662	-0.315	-0.050
00:00:07.664	-0.420	-0.060
00:00:07.666	-0.425	-0.070
00:00:07.668	-0.300	-0.070
00:00:07.670	-0.175	-0.070
00:00:07.672	-0.085	-0.065
00:00:07.674	-0.055	-0.055
00:00:07.676	-0.045	-0.040
00:00:07.678	-0.160	-0.025
00:00:07.680	-0.305	-0.010
00:00:07.682	-0.350	0.000
00:00:07.684	-0.330	0.000
00:00:07.686	-0.280	0.000
00:00:07.688	-0.200	-0.010
00:00:07.690	-0.185	-0.030
00:00:07.692	-0.120	-0.045
00:00:07.694	-0.130	-0.065
00:00:07.696	-0.085	-0.080
00:00:07.698	-0.300	-0.085
00:00:07.700	-0.380	-0.085
00:00:07.702	-0.400	-0.075
00:00:07.704	-0.335	-0.060
00:00:07.706	-0.300	-0.040
00:00:07.708	-0.170	-0.020
00:00:07.710	-0.135	-0.005
00:00:07.712	-0.105	0.000
00:00:07.714	-0.120	0.000
00:00:07.716	-0.145	-0.005
00:00:07.718	-0.195	-0.020
00:00:07.720	-0.280	-0.030
00:00:07.722	-0.390	-0.045
00:00:07.724	-0.305	-0.050
00:00:07.726	-0.295	-0.050
00:00:07.728	-0.290	-0.045
00:00:07.730	-0.250	-0.040
00:00:07.732	-0.075	-0.030
00:00:07.734	-0.140	-0.020
00:00:07.736	-0.090	-0.015
00:00:07.738	-0.205	-0.015
00:00:07.740	-0.235	-0.020
00:00:07.742	-0.305	-0.025
00:00:07.744	-0.350	-0.030
00:00:07.746	-0.320	-0.035
00:00:07.748	-0.225	-0.035
00:00:07.750	-0.265	-0.035
00:00:07.752	-0.080	-0.035
00:00:07.754	-0.080	-0.035
00:00:07.756	-0.145	-0.035
00:00:07.758	-0.245	-0.040
00:00:07.760	-0.335	-0.045
00:00:07.762	-0.435	-0.050
00:00:07.764	-0.375	-0.060
00:00:07.766	-0.300	-0.060
00:00:07.768	-0.250	-0.060
00:00:07.770	-0.200	-0.055
00:00:07.772	-0.090	-0.045
00:00:07.774	-0.095	-0.035
00:00:07.776	-0.115	-0.030
00:00:07.778	-0.245	-0.025
00:00:07.780	-0.275	-0.025
00:00:07.782	-0.350	-0.030
00:00:07.784	-0.415	-0.040
00:00:07.786	-0.330	-0.050
00:00:07.788	-0.230	-0.060
00:00:07.790	-0.205	-0.070
00:00:07.792	-0.140	-0.075
00:00:07.794	-0.115	-0.075
00:00:07.796	-0.190	-0.070
00:00:07.798	-0.255	-0.060
00:00:07.800	-0.300	-0.055
00:00:07.802	-0.380	-0.050
00:00:07.804	-0.370	-0.045
00:00:07.806	-0.310	-0.045
00:00:07.808	-0.260	-0.045
00:00:07.810	-0.265	-0.045
00:00:07.812	-0.085	-0.045
00:00:07.814	-0.080	-0.045
00:00:07.816	-0.125	-0.045
00:00:07.818	-0.305	-0.045
00:00:07.820	-0.305	-0.045
00:00:07.822	-0.400	-0.045
00:00:07.824	-0.365	-0.045
00:00:07.826	-0.330	-0.045
00:00:07.828	-0.235	-0.040
00:00:07.830	-0.190	-0.040
00:00:07.832	-0.095	-0.030
00:00:07.834	-0.040	-0.020
00:00:07.836	-0.155	-0.010
00:00:07.838	-0.255	0.005
00:00:07.840	-0.260	0.020
00:00:07.842	-0.355	0.030
00:00:07.844	-0.275	0.035
00:00:07.846	-0.175	0.040
00:00:07.848	-0.150	0.035
00:00:07.850	-0.115	0.025
00:00:07.852	-0.075	0.010
00:00:07.854	-0.080	0.000
00:00:07.856	-0.215	-0.010
00:00:07.858	-0.335	-0.020
00:00:07.860	-0.275	-0.025
00:00:07.862	-0.350	-0.025
00:00:07.864	-0.320	-0.020
00:00:07.866	-0.245	-0.020
00:00:07.868	-0.140	-0.020
00:00:07.870	-0.165	-0.015
00:00:07.872	-0.125	-0.015
00:00:07.874	-0.105	-0.015
00:00:07.876	-0.145	-0.015
00:00:07.878	-0.250	-0.010
00:00:07.880	-0.290	-0.010
00:00:07.882	-0.325	-0.005
00:00:07.884	-0.340	0.000
00:00:07.886	-0.285	-0.005
00:00:07.888	-0.240	-0.005
00:00:07.890	-0.180	-0.015
00:00:07.892	-0.115	-0.030
00:00:07.894	-0.140	-0.040
00:00:07.896	-0.210	-0.055
00:00:07.898	-0.300	-0.070
00:00:07.900	-0.345	-0.080
00:00:07.902	-0.470	-0.085
00:00:07.904	-0.470	-0.085
00:00:07.906	-0.445	-0.080
00:00:07.908	-0.230	-0.070
00:00:07.910	-0.155	-0.060
00:00:07.912	-0.135	-0.055
00:00:07.914	-0.150	-0.050
00:00:07.916	-0.185	-0.045
00:00:07.918	-0.325	-0.045
00:00:07.920	-0.390	-0.050
00:00:07.922	-0.475	-0.055
00:00:07.924	-0.395	-0.065
00:00:07.926	-0.310	-0.070
00:00:07.928	-0.175	-0.070
00:00:07.930	-0.135	-0.065
00:00:07.932	-0.105	-0.060
00:00:07.934	-0.215	-0.050
00:00:07.936	-0.280	-0.040
00:00:07.938	-0.305	-0.030
00:00:07.940	-0.305	-0.020
00:00:07.942	-0.355	-0.015
00:00:07.944	-0.320	-0.015
00:00:07.946	-0.265	-0.015
00:00:07.948	-0.215	-0.020
00:00:07.950	-0.150	-0.020
00:00:07.952	-0.065	-0.015
00:00:07.954	-0.145	-0.005
00:00:07.956	-0.230	0.010
00:00:07.958	-0.260	0.030
00:00:07.960	-0.335	0.055
00:00:07.962	-0.240	0.080
00:00:07.964	-0.135	0.110
00:00:07.966	-0.020	0.135
00:00:07.968	-0.030	0.155
00:00:07.970	0.040	0.175
00:00:07.972	0.050	0.195
00:00:07.974	0.085	0.210
00:00:07.976	0.070	0.220
00:00:07.978	-0.070	0.220
00:00:07.980	-0.175	0.210
00:00:07.982	-0.145	0.190
00:00:07.984	-0.135	0.155
00:00:07.986	-0.085	0.105
00:00:07.988	-0.145	0.040
00:00:07.990	-0.150	-0.025
00:00:07.992	-0.255	-0.090
00:00:07.994	-0.435	-0.140
00:00:07.996	-0.405	-0.180
00:00:07.998	-0.435	-0.195
00:00:08.000	-0.525	-0.190
00:00:08.002	-0.440	-0.170
00:00:08.004	-0.400	-0.140
00:00:08.006	-0.335	-0.110
00:00:08.008	-0.230	-0.080
00:00:08.010	-0.200	-0.060
00:00:08.012	-0.230	-0.045
00:00:08.014	-0.235	-0.040
00:00:08.016	-0.260	-0.045
00:00:08.018	-0.250	-0.045
00:00:08.020	-0.395	-0.050
00:00:08.022	-0.335	-0.050
00:00:08.024	-0.300	-0.050
00:00:08.026	-0.260	-0.045
00:00:08.028	-0.270	-0.040
00:00:08.030	-0.145	-0.035
00:00:08.032	-0.180	-0.035
00:00:08.034	-0.250	-0.035
00:00:08.036	-0.315	-0.035
00:00:08.038	-0.340	-0.040
00:00:08.040	-0.415	-0.040
00:00:08.042	-0.300	-0.035
00:00:08.044	-0.295	-0.030
00:00:08.046	-0.245	-0.025
00:00:08.048	-0.150	-0.020
00:00:08.050	-0.100	-0.025
00:00:08.052	-0.185	-0.030
00:00:08.054	-0.230	-0.045
00:00:08.056	-0.360	-0.060
00:00:08.058	-0.355	-0.075
00:00:08.060	-0.475	-0.090
00:00:08.062	-0.475	-0.095
00:00:08.064	-0.385	-0.090
00:00:08.066	-0.275	-0.080
00:00:08.068	-0.225	-0.060
00:00:08.070	-0.090	-0.035
00:00:08.072	-0.150	-0.015
00:00:08.074	-0.205	0.000
00:00:08.076	-0.225	0.010
00:00:08.078	-0.265	0.010
00:00:08.080	-0.390	0.005
00:00:08.082	-0.325	-0.005
00:00:08.084	-0.295	-0.015
00:00:08.086	-0.220	-0.020
00:00:08.088	-0.245	-0.025
00:00:08.090	-0.140	-0.025
00:00:08.092	-0.165	-0.025
00:00:08.094	-0.230	-0.025
00:00:08.096	-0.275	-0.020
00:00:08.098	-0.370	-0.020
00:00:08.100	-0.415	-0.020
00:00:08.102	-0.340	-0.020
00:00:08.104	-0.290	-0.020
00:00:08.106	-0.200	-0.020
00:00:08.108	-0.220	-0.015
00:00:08.110	-0.120	-0.005
00:00:08.112	-0.100	0.005
00:00:08.114	-0.190	0.015
00:00:08.116	-0.355	0.025
00:00:08.118	-0.210	0.035
00:00:08.120	-0.265	0.040
00:00:08.122	-0.360	0.045
00:00:08.124	-0.270	0.045
00:00:08.126	-0.190	0.045
00:00:08.128	-0.115	0.045
00:00:08.130	-0.085	0.045
00:00:08.132	-0.060	0.045
00:00:08.134	-0.150	0.040
00:00:08.136	-0.245	0.040
00:00:08.138	-0.295	0.040
00:00:08.140	-0.350	0.035
00:00:08.142	-0.360	0.030
00:00:08.144	-0.260	0.030
00:00:08.146	-0.215	0.030
00:00:08.148	-0.145	0.035
00:00:08.150	-0.080	0.045
00:00:08.152	-0.095	0.055
00:00:08.154	-0.080	0.070
00:00:08.156	-0.170	0.085
00:00:08.158	-0.245	0.100
00:00:08.160	-0.300	0.105
00:00:08.162	-0.225	0.105
00:00:08.164	-0.195	0.100
00:00:08.166	-0.080	0.085
00:00:08.168	-0.115	0.075
00:00:08.170	-0.140	0.065
00:00:08.172	-0.140	0.060
00:00:08.174	-0.135	0.060
00:00:08.176	-0.120	0.075
00:00:08.178	-0.160	0.090
00:00:08.180	-0.225	0.115
00:00:08.182	-0.220	0.140
00:00:08.184	-0.175	0.165
00:00:08.186	-0.075	0.180
00:00:08.188	0.050	0.195
00:00:08.190	0.080	0.200
00:00:08.192	0.080	0.205
00:00:08.194	0.020	0.200
00:00:08.196	-0.085	0.195
00:00:08.198	-0.195	0.190
00:00:08.200	-0.225	0.190
00:00:08.202	-0.170	0.190
00:00:08.204	-0.080	0.195
00:00:08.206	-0.025	0.205
00:00:08.208	0.105	0.210
00:00:08.210	0.160	0.215
00:00:08.212	0.085	0.220
00:00:08.214	-0.050	0.225
00:00:08.216	-0.105	0.225
00:00:08.218	-0.110	0.225
00:00:08.220	-0.185	0.220
00:00:08.222	-0.150	0.215
00:00:08.224	-0.065	0.210
00:00:08.226	0.020	0.210
00:00:08.228	0.090	0.205
00:00:08.230	0.080	0.205
00:00:08.232	0.095	0.205
00:00:08.234	-0.075	0.205
00:00:08.236	-0.110	0.205
00:00:08.238	-0.210	0.200
00:00:08.240	-0.180	0.190
00:00:08.242	-0.195	0.180
00:00:08.244	-0.135	0.165
00:00:08.246	-0.055	0.145
00:00:08.248	-0.065	0.125
00:00:08.250	-0.050	0.100
00:00:08.252	-0.050	0.080
00:00:08.254	-0.110	0.060
00:00:08.256	-0.310	0.045
00:00:08.258	-0.385	0.030
00:00:08.260	-0.355	0.015
00:00:08.262	-0.390	0.005
00:00:08.264	-0.270	0.000
00:00:08.266	-0.235	-0.005
00:00:08.268	-0.140	-0.005
00:00:08.270	-0.085	-0.005
00:00:08.272	-0.100	-0.005
00:00:08.274	-0.275	-0.005
00:00:08.276	-0.370	-0.005
00:00:08.278	-0.425	-0.005
00:00:08.280	-0.375	-0.005
00:00:08.282	-0.355	-0.005
00:00:08.284	-0.245	-0.010
00:00:08.286	-0.250	-0.010
00:00:08.288	-0.130	-0.015
00:00:08.290	-0.145	-0.015
00:00:08.292	-0.200	-0.020
00:00:08.294	-0.275	-0.020
00:00:08.296	-0.365	-0.025
00:00:08.298	-0.515	-0.035
00:00:08.300	-0.425	-0.040
00:00:08.302	-0.315	-0.050
00:00:08.304	-0.305	-0.060
00:00:08.306	-0.290	-0.070
00:00:08.308	-0.230	-0.070
00:00:08.310	-0.210	-0.065
00:00:08.312	-0.240	-0.055
00:00:08.314	-0.300	-0.045
00:00:08.316	-0.355	-0.030
00:00:08.318	-0.420	-0.015
00:00:08.320	-0.345	-0.005
00:00:08.322	-0.340	-0.005
00:00:08.324	-0.290	-0.010
00:00:08.326	-0.260	-0.020
00:00:08.328	-0.190	-0.040
00:00:08.330	-0.250	-0.055
00:00:08.332	-0.255	-0.065
00:00:08.334	-0.315	-0.070
00:00:08.336	-0.395	-0.070
00:00:08.338	-0.520	-0.065
00:00:08.340	-0.395	-0.055
00:00:08.342	-0.345	-0.050
00:00:08.344	-0.295	-0.040
00:00:08.346	-0.355	-0.040
00:00:08.348	-0.220	-0.045
00:00:08.350	-0.145	-0.050
00:00:08.352	-0.230	-0.055
00:00:08.354	-0.280	-0.060
00:00:08.356	-0.355	-0.060
00:00:08.358	-0.470	-0.055
00:00:08.360	-0.440	-0.045
00:00:08.362	-0.375	-0.040
00:00:08.364	-0.285	-0.030
00:00:08.366	-0.260	-0.025
00:00:08.368	-0.125	-0.030
00:00:08.370	-0.230	-0.035
00:00:08.372	-0.290	-0.045
00:00:08.374	-0.315	-0.055
00:00:08.376	-0.335	-0.065
00:00:08.378	-0.455	-0.070
00:00:08.380	-0.450	-0.065
00:00:08.382	-0.380	-0.055
00:00:08.384	-0.340	-0.040
00:00:08.386	-0.330	-0.025
00:00:08.388	-0.145	-0.015
00:00:08.390	-0.070	-0.005
00:00:08.392	-0.165	0.000
00:00:08.394	-0.375	0.000
00:00:08.396	-0.280	-0.005
00:00:08.398	-0.425	-0.015
00:00:08.400	-0.445	-0.025
00:00:08.402	-0.355	-0.035
00:00:08.404	-0.285	-0.045
00:00:08.406	-0.290	-0.055
00:00:08.408	-0.210	-0.060
00:00:08.410	-0.240	-0.065
00:00:08.412	-0.230	-0.065
00:00:08.414	-0.340	-0.065
00:00:08.416	-0.415	-0.060
00:00:08.418	-0.490	-0.055
00:00:08.420	-0.395	-0.045
00:00:08.422	-0.380	-0.035
00:00:08.424	-0.305	-0.030
00:00:08.426	-0.250	-0.025
00:00:08.428	-0.155	-0.025
00:00:08.430	-0.180	-0.025
00:00:08.432	-0.260	-0.030
00:00:08.434	-0.360	-0.040
00:00:08.436	-0.370	-0.045
00:00:08.438	-0.440	-0.045
00:00:08.440	-0.435	-0.045
00:00:08.442	-0.375	-0.040
00:00:08.444	-0.305	-0.025
00:00:08.446	-0.200	-0.010
00:00:08.448	-0.150	0.000
00:00:08.450	-0.050	0.015
00:00:08.452	-0.185	0.020
00:00:08.454	-0.320	0.015
00:00:08.456	-0.315	0.005
00:00:08.458	-0.435	-0.010
00:00:08.460	-0.485	-0.030
00:00:08.462	-0.415	-0.050
00:00:08.464	-0.330	-0.070
00:00:08.466	-0.325	-0.080
00:00:08.468	-0.195	-0.080
00:00:08.470	-0.220	-0.075
00:00:08.472	-0.255	-0.060
00:00:08.474	-0.360	-0.045
00:00:08.476	-0.365	-0.025
00:00:08.478	-0.380	-0.010
00:00:08.480	-0.365	0.005
00:00:08.482	-0.300	0.005
00:00:08.484	-0.290	0.005
00:00:08.486	-0.230	-0.005
00:00:08.488	-0.200	-0.015
00:00:08.490	-0.170	-0.025
00:00:08.492	-0.255	-0.030
00:00:08.494	-0.350	-0.035
00:00:08.496	-0.370	-0.035
00:00:08.498	-0.515	-0.035
00:00:08.500	-0.405	-0.035
00:00:08.502	-0.345	-0.030
00:00:08.504	-0.255	-0.035
00:00:08.506	-0.220	-0.040
00:00:08.508	-0.250	-0.050
00:00:08.510	-0.205	-0.060
00:00:08.512	-0.320	-0.070
00:00:08.514	-0.395	-0.075
00:00:08.516	-0.445	-0.080
00:00:08.518	-0.485	-0.080
00:00:08.520	-0.445	-0.075
00:00:08.522	-0.345	-0.065
00:00:08.524	-0.330	-0.055
00:00:08.526	-0.210	-0.045
00:00:08.528	-0.175	-0.030
00:00:08.530	-0.160	-0.025
00:00:08.532	-0.260	-0.025
00:00:08.534	-0.355	-0.025
00:00:08.536	-0.450	-0.035
00:00:08.538	-0.525	-0.040
00:00:08.540	-0.460	-0.050
00:00:08.542	-0.365	-0.055
00:00:08.544	-0.280	-0.060
00:00:08.546	-0.140	-0.055
00:00:08.548	-0.160	-0.050
00:00:08.550	-0.250	-0.045
00:00:08.552	-0.320	-0.035
00:00:08.554	-0.365	-0.025
00:00:08.556	-0.440	-0.020
00:00:08.558	-0.470	-0.015
00:00:08.560	-0.380	-0.015
00:00:08.562	-0.305	-0.015
00:00:08.564	-0.240	-0.020
00:00:08.566	-0.205	-0.025
00:00:08.568	-0.240	-0.025
00:00:08.570	-0.200	-0.025
00:00:08.572	-0.270	-0.020
00:00:08.574	-0.355	-0.020
00:00:08.576	-0.470	-0.015
00:00:08.578	-0.420	-0.015
00:00:08.580	-0.390	-0.020
00:00:08.582	-0.335	-0.020
00:00:08.584	-0.245	-0.030
00:00:08.586	-0.180	-0.035
00:00:08.588	-0.230	-0.045
00:00:08.590	-0.275	-0.050
00:00:08.592	-0.325	-0.050
00:00:08.594	-0.340	-0.050
00:00:08.596	-0.440	-0.050
00:00:08.598	-0.510	-0.045
00:00:08.600	-0.405	-0.045
00:00:08.602	-0.320	-0.045
00:00:08.604	-0.255	-0.050
00:00:08.606	-0.170	-0.055
00:00:08.608	-0.270	-0.065
00:00:08.610	-0.260	-0.070
00:00:08.612	-0.320	-0.075
00:00:08.614	-0.455	-0.075
00:00:08.616	-0.460	-0.070
00:00:08.618	-0.465	-0.065
00:00:08.620	-0.430	-0.055
00:00:08.622	-0.290	-0.040
00:00:08.624	-0.275	-0.025
00:00:08.626	-0.190	-0.015
00:00:08.628	-0.115	-0.005
00:00:08.630	-0.175	0.005
00:00:08.632	-0.280	0.010
00:00:08.634	-0.380	0.015
00:00:08.636	-0.465	0.015
00:00:08.638	-0.430	0.010
00:00:08.640	-0.300	0.005
00:00:08.642	-0.220	0.000
00:00:08.644	-0.220	-0.005
00:00:08.646	-0.155	-0.010
00:00:08.648	-0.165	-0.010
00:00:08.650	-0.290	-0.010
00:00:08.652	-0.355	-0.005
00:00:08.654	-0.290	0.000
00:00:08.656	-0.380	0.005
00:00:08.658	-0.395	0.015
00:00:08.660	-0.320	0.020
00:00:08.662	-0.290	0.020
00:00:08.664	-0.295	0.020
00:00:08.666	-0.075	0.020
00:00:08.668	-0.120	0.015
00:00:08.670	-0.180	0.010
00:00:08.672	-0.330	0.005
00:00:08.674	-0.385	0.005
00:00:08.676	-0.405	0.005
00:00:08.678	-0.355	0.010
00:00:08.680	-0.325	0.010
00:00:08.682	-0.245	0.015
00:00:08.684	-0.180	0.010
00:00:08.686	-0.070	0.005
00:00:08.688	-0.190	-0.005
00:00:08.690	-0.320	-0.020
00:00:08.692	-0.465	-0.040
00:00:08.694	-0.420	-0.055
00:00:08.696	-0.460	-0.070
00:00:08.698	-0.420	-0.080
00:00:08.700	-0.365	-0.085
00:00:08.702	-0.390	-0.080
00:00:08.704	-0.315	-0.070
00:00:08.706	-0.185	-0.060
00:00:08.708	-0.230	-0.050
00:00:08.710	-0.260	-0.045
00:00:08.712	-0.295	-0.045
00:00:08.714	-0.375	-0.050
00:00:08.716	-0.535	-0.060
00:00:08.718	-0.525	-0.075
00:00:08.720	-0.435	-0.090
00:00:08.722	-0.320	-0.100
00:00:08.724	-0.230	-0.105
00:00:08.726	-0.185	-0.100
00:00:08.728	-0.270	-0.090
00:00:08.730	-0.315	-0.075
00:00:08.732	-0.380	-0.055
00:00:08.734	-0.415	-0.040
00:00:08.736	-0.465	-0.025
00:00:08.738	-0.400	-0.020
00:00:08.740	-0.320	-0.020
00:00:08.742	-0.270	-0.025
00:00:08.744	-0.235	-0.030
00:00:08.746	-0.155	-0.035
00:00:08.748	-0.235	-0.040
00:00:08.750	-0.300	-0.035
00:00:08.752	-0.325	-0.020
00:00:08.754	-0.310	0.000
00:00:08.756	-0.405	0.025
00:00:08.758	-0.420	0.060
00:00:08.760	-0.210	0.090
00:00:08.762	-0.130	0.120
00:00:08.764	-0.015	0.145
00:00:08.766	0.085	0.170
00:00:08.768	0.055	0.190
00:00:08.770	-0.040	0.205
00:00:08.772	-0.150	0.215
00:00:08.774	-0.195	0.225
00:00:08.776	-0.165	0.230
00:00:08.778	-0.215	0.225
00:00:08.780	-0.125	0.210
00:00:08.782	0.030	0.190
00:00:08.784	0.075	0.150
00:00:08.786	0.005	0.110
00:00:08.788	-0.195	0.055
00:00:08.790	-0.295	0.005
00:00:08.792	-0.430	-0.040
00:00:08.794	-0.560	-0.080
00:00:08.796	-0.590	-0.105
00:00:08.798	-0.520	-0.115
00:00:08.800	-0.430	-0.115
00:00:08.802	-0.280	-0.105
00:00:08.804	-0.200	-0.090
00:00:08.806	-0.195	-0.075
00:00:08.808	-0.200	-0.065
00:00:08.810	-0.335	-0.060
00:00:08.812	-0.445	-0.060
00:00:08.814	-0.520	-0.070
00:00:08.816	-0.520	-0.080
00:00:08.818	-0.505	-0.090
00:00:08.820	-0.450	-0.095
00:00:08.822	-0.255	-0.090
00:00:08.824	-0.190	-0.080
00:00:08.826	-0.235	-0.070
00:00:08.828	-0.195	-0.050
00:00:08.830	-0.280	-0.040
00:00:08.832	-0.345	-0.025
00:00:08.834	-0.480	-0.025
00:00:08.836	-0.455	-0.025
00:00:08.838	-0.445	-0.030
00:00:08.840	-0.330	-0.040
00:00:08.842	-0.245	-0.045
00:00:08.844	-0.155	-0.045
00:00:08.846	-0.125	-0.045
00:00:08.848	-0.270	-0.035
00:00:08.850	-0.365	-0.025
00:00:08.852	-0.320	-0.015
00:00:08.854	-0.415	-0.005
00:00:08.856	-0.460	-0.005
00:00:08.858	-0.395	-0.010
00:00:08.860	-0.305	-0.020
00:00:08.862	-0.300	-0.040
00:00:08.864	-0.165	-0.060
00:00:08.866	-0.220	-0.075
00:00:08.868	-0.255	-0.080
00:00:08.870	-0.320	-0.080
00:00:08.872	-0.415	-0.075
00:00:08.874	-0.465	-0.060
00:00:08.876	-0.405	-0.040
00:00:08.878	-0.350	-0.025
00:00:08.880	-0.355	-0.015
00:00:08.882	-0.265	-0.010
00:00:08.884	-0.110	-0.015
00:00:08.886	-0.205	-0.025
00:00:08.888	-0.230	-0.040
00:00:08.890	-0.300	-0.050
00:00:08.892	-0.370	-0.060
00:00:08.894	-0.500	-0.060
00:00:08.896	-0.465	-0.050
00:00:08.898	-0.415	-0.030
00:00:08.900	-0.280	-0.010
00:00:08.902	-0.215	0.010
00:00:08.904	-0.065	0.025
00:00:08.906	-0.115	0.035
00:00:08.908	-0.180	0.030
00:00:08.910	-0.270	0.020
00:00:08.912	-0.365	0.005
00:00:08.914	-0.540	-0.015
00:00:08.916	-0.435	-0.030
00:00:08.918	-0.350	-0.040
00:00:08.920	-0.320	-0.040
00:00:08.922	-0.270	-0.030
00:00:08.924	-0.105	-0.015
00:00:08.926	-0.090	0.005
00:00:08.928	-0.185	0.025
00:00:08.930	-0.265	0.040
00:00:08.932	-0.285	0.050
00:00:08.934	-0.380	0.055
00:00:08.936	-0.405	0.050
00:00:08.938	-0.360	0.045
00:00:08.940	-0.230	0.035
00:00:08.942	-0.170	0.025
00:00:08.944	-0.085	0.020
00:00:08.946	-0.100	0.020
00:00:08.948	-0.190	0.025
00:00:08.950	-0.290	0.035
00:00:08.952	-0.295	0.040
00:00:08.954	-0.385	0.050
00:00:08.956	-0.330	0.055
00:00:08.958	-0.315	0.055
00:00:08.960	-0.180	0.055
00:00:08.962	-0.165	0.055
00:00:08.964	-0.110	0.050
00:00:08.966	-0.095	0.055
00:00:08.968	-0.100	0.055
00:00:08.970	-0.165	0.065
00:00:08.972	-0.265	0.075
00:00:08.974	-0.340	0.085
00:00:08.976	-0.285	0.100
00:00:08.978	-0.270	0.115
00:00:08.980	-0.185	0.120
00:00:08.982	-0.110	0.130
00:00:08.984	0.000	0.130
00:00:08.986	-0.025	0.130
00:00:08.988	-0.035	0.130
00:00:08.990	-0.085	0.130
00:00:08.992	-0.205	0.130
00:00:08.994	-0.265	0.135
00:00:08.996	-0.255	0.140
00:00:08.998	-0.260	0.145
00:00:09.000	-0.125	0.155
00:00:09.002	-0.125	0.170
00:00:09.004	0.065	0.180
00:00:09.006	0.060	0.190
00:00:09.008	-0.020	0.200
00:00:09.010	-0.035	0.210
00:00:09.012	-0.080	0.215
00:00:09.014	-0.205	0.220
00:00:09.016	-0.190	0.220
00:00:09.018	-0.100	0.225
00:00:09.020	-0.020	0.220
00:00:09.022	-0.040	0.220
00:00:09.024	0.075	0.215
00:00:09.026	0.035	0.210
00:00:09.028	0.075	0.205
00:00:09.030	-0.085	0.195
00:00:09.032	-0.150	0.185
00:00:09.034	-0.315	0.175
00:00:09.036	-0.245	0.165
00:00:09.038	-0.195	0.150
00:00:09.040	-0.125	0.140
00:00:09.042	-0.075	0.130
00:00:09.044	-0.035	0.120
00:00:09.046	-0.005	0.115
00:00:09.048	-0.125	0.110
00:00:09.050	-0.200	0.110
00:00:09.052	-0.230	0.105
00:00:09.054	-0.280	0.100
00:00:09.056	-0.350	0.090
00:00:09.058	-0.305	0.075
00:00:09.060	-0.130	0.055
00:00:09.062	-0.195	0.035
00:00:09.064	-0.170	0.010
00:00:09.066	-0.175	-0.010
00:00:09.068	-0.205	-0.030
00:00:09.070	-0.360	-0.040
00:00:09.072	-0.405	-0.040
00:00:09.074	-0.490	-0.035
00:00:09.076	-0.410	-0.020
00:00:09.078	-0.315	-0.010
00:00:09.080	-0.245	0.005
00:00:09.082	-0.115	0.010
00:00:09.084	-0.130	0.010
00:00:09.086	-0.190	0.000
00:00:09.088	-0.275	-0.010
00:00:09.090	-0.345	-0.030
00:00:09.092	-0.440	-0.045
00:00:09.094	-0.495	-0.060
00:00:09.096	-0.500	-0.065
00:00:09.098	-0.385	-0.065
00:00:09.100	-0.235	-0.060
00:00:09.102	-0.205	-0.050
00:00:09.104	-0.155	-0.045
00:00:09.106	-0.220	-0.035
00:00:09.108	-0.300	-0.035
00:00:09.110	-0.350	-0.035
00:00:09.112	-0.445	-0.040
00:00:09.114	-0.495	-0.050
00:00:09.116	-0.450	-0.060
00:00:09.118	-0.400	-0.065
00:00:09.120	-0.310	-0.065
00:00:09.122	-0.175	-0.065
00:00:09.124	-0.200	-0.060
00:00:09.126	-0.200	-0.055
00:00:09.128	-0.285	-0.050
00:00:09.130	-0.445	-0.045
00:00:09.132	-0.430	-0.045
00:00:09.134	-0.420	-0.050
00:00:09.136	-0.415	-0.055
00:00:09.138	-0.395	-0.065
00:00:09.140	-0.310	-0.070
00:00:09.142	-0.205	-0.080
00:00:09.144	-0.210	-0.085
00:00:09.146	-0.315	-0.085
00:00:09.148	-0.320	-0.080
00:00:09.150	-0.345	-0.075
00:00:09.152	-0.495	-0.070
00:00:09.154	-0.490	-0.060
00:00:09.156	-0.390	-0.050
00:00:09.158	-0.255	-0.040
00:00:09.160	-0.250	-0.035
00:00:09.162	-0.255	-0.030
00:00:09.164	-0.210	-0.025
00:00:09.166	-0.175	-0.025
00:00:09.168	-0.235	-0.030
00:00:09.170	-0.340	-0.030
00:00:09.172	-0.425	-0.040
00:00:09.174	-0.450	-0.045
00:00:09.176	-0.465	-0.055
00:00:09.178	-0.370	-0.060
00:00:09.180	-0.275	-0.070
00:00:09.182	-0.185	-0.075
00:00:09.184	-0.215	-0.075
00:00:09.186	-0.260	-0.075
00:00:09.188	-0.310	-0.070
00:00:09.190	-0.360	-0.065
00:00:09.192	-0.520	-0.060
00:00:09.194	-0.450	-0.055
00:00:09.196	-0.385	-0.055
00:00:09.198	-0.270	-0.055
00:00:09.200	-0.335	-0.055
00:00:09.202	-0.215	-0.060
00:00:09.204	-0.140	-0.060
00:00:09.206	-0.230	-0.060
00:00:09.208	-0.305	-0.055
00:00:09.210	-0.365	-0.050
00:00:09.212	-0.495	-0.045
00:00:09.214	-0.455	-0.035
00:00:09.216	-0.390	-0.030
00:00:09.218	-0.270	-0.020
00:00:09.220	-0.205	-0.020
00:00:09.222	-0.080	-0.020
00:00:09.224	-0.170	-0.025
00:00:09.226	-0.260	-0.030
00:00:09.228	-0.410	-0.040
00:00:09.230	-0.340	-0.050
00:00:09.232	-0.505	-0.060
00:00:09.234	-0.495	-0.065
00:00:09.236	-0.465	-0.070
00:00:09.238	-0.340	-0.070
00:00:09.240	-0.255	-0.065
00:00:09.242	-0.155	-0.060
00:00:09.244	-0.140	-0.055
00:00:09.246	-0.205	-0.045
00:00:09.248	-0.355	-0.040
00:00:09.250	-0.395	-0.035
00:00:09.252	-0.450	-0.035
00:00:09.254	-0.460	-0.035
00:00:09.256	-0.440	-0.035
00:00:09.258	-0.290	-0.035
00:00:09.260	-0.255	-0.035
00:00:09.262	-0.105	-0.030
00:00:09.264	-0.105	-0.025
00:00:09.266	-0.235	-0.020
00:00:09.268	-0.320	-0.015
00:00:09.270	-0.325	-0.015
00:00:09.272	-0.450	-0.015
00:00:09.274	-0.430	-0.020
00:00:09.276	-0.395	-0.030
00:00:09.278	-0.320	-0.045
00:00:09.280	-0.280	-0.055
00:00:09.282	-0.200	-0.070
00:00:09.284	-0.230	-0.080
00:00:09.286	-0.255	-0.085
00:00:09.288	-0.325	-0.085
00:00:09.290	-0.375	-0.080
00:00:09.292	-0.530	-0.070
00:00:09.294	-0.445	-0.055
00:00:09.296	-0.360	-0.045
00:00:09.298	-0.265	-0.030
00:00:09.300	-0.250	-0.025
00:00:09.302	-0.140	-0.020
00:00:09.304	-0.175	-0.025
00:00:09.306	-0.265	-0.030
00:00:09.308	-0.320	-0.035
00:00:09.310	-0.340	-0.045
00:00:09.312	-0.485	-0.055
00:00:09.314	-0.485	-0.060
00:00:09.316	-0.355	-0.060
00:00:09.318	-0.265	-0.060
00:00:09.320	-0.280	-0.055
00:00:09.322	-0.240	-0.045
00:00:09.324	-0.255	-0.035
00:00:09.326	-0.215	-0.025
00:00:09.328	-0.260	-0.020
00:00:09.330	-0.350	-0.015
00:00:09.332	-0.395	-0.015
00:00:09.334	-0.390	-0.020
00:00:09.336	-0.390	-0.030
00:00:09.338	-0.305	-0.040
00:00:09.340	-0.245	-0.050
00:00:09.342	-0.200	-0.060
00:00:09.344	-0.270	-0.065
00:00:09.346	-0.240	-0.070
00:00:09.348	-0.360	-0.065
00:00:09.350	-0.455	-0.060
00:00:09.352	-0.450	-0.055
00:00:09.354	-0.395	-0.045
00:00:09.356	-0.315	-0.035
00:00:09.358	-0.275	-0.030
00:00:09.360	-0.210	-0.025
00:00:09.362	-0.130	-0.020
00:00:09.364	-0.180	-0.020
00:00:09.366	-0.230	-0.025
00:00:09.368	-0.355	-0.030
00:00:09.370	-0.455	-0.035
00:00:09.372	-0.435	-0.040
00:00:09.374	-0.355	-0.040
00:00:09.376	-0.405	-0.045
00:00:09.378	-0.260	-0.050
00:00:09.380	-0.195	-0.050
00:00:09.382	-0.240	-0.050
00:00:09.384	-0.200	-0.050
00:00:09.386	-0.295	-0.050
00:00:09.388	-0.370	-0.050
00:00:09.390	-0.410	-0.050
00:00:09.392	-0.445	-0.050
00:00:09.394	-0.385	-0.050
00:00:09.396	-0.350	-0.050
00:00:09.398	-0.300	-0.045
00:00:09.400	-0.260	-0.040
00:00:09.402	-0.175	-0.035
00:00:09.404	-0.235	-0.025
00:00:09.406	-0.335	-0.020
00:00:09.408	-0.225	-0.015
00:00:09.410	-0.390	-0.010
00:00:09.412	-0.425	-0.010
00:00:09.414	-0.325	-0.005
00:00:09.416	-0.305	-0.010
00:00:09.418	-0.235	-0.010
00:00:09.420	-0.215	-0.015
00:00:09.422	-0.225	-0.020
00:00:09.424	-0.195	-0.020
00:00:09.426	-0.280	-0.025
00:00:09.428	-0.300	-0.030
00:00:09.430	-0.360	-0.030
00:00:09.432	-0.485	-0.030
00:00:09.434	-0.400	-0.030
00:00:09.436	-0.310	-0.030
00:00:09.438	-0.215	-0.030
00:00:09.440	-0.180	-0.025
00:00:09.442	-0.145	-0.015
00:00:09.444	-0.210	-0.005
00:00:09.446	-0.285	0.005
00:00:09.448	-0.270	0.015
00:00:09.450	-0.345	0.025
00:00:09.452	-0.380	0.035
00:00:09.454	-0.330	0.040
00:00:09.456	-0.205	0.045
00:00:09.458	-0.170	0.045
00:00:09.460	-0.120	0.045
00:00:09.462	-0.110	0.040
00:00:09.464	-0.145	0.040
00:00:09.466	-0.285	0.035
00:00:09.468	-0.285	0.030
00:00:09.470	-0.365	0.025
00:00:09.472	-0.340	0.025
00:00:09.474	-0.300	0.020
00:00:09.476	-0.280	0.015
00:00:09.478	-0.285	0.010
00:00:09.480	-0.150	0.000
00:00:09.482	-0.160	-0.010
00:00:09.484	-0.245	-0.020
00:00:09.486	-0.315	-0.025
00:00:09.488	-0.340	-0.035
00:00:09.490	-0.405	-0.040
00:00:09.492	-0.385	-0.040
00:00:09.494	-0.405	-0.035
00:00:09.496	-0.325	-0.030
00:00:09.498	-0.280	-0.020
00:00:09.500	-0.135	-0.015
00:00:09.502	-0.135	-0.010
00:00:09.504	-0.180	-0.005
00:00:09.506	-0.290	-0.005
00:00:09.508	-0.325	-0.010
00:00:09.510	-0.465	-0.015
00:00:09.512	-0.395	-0.025
00:00:09.514	-0.330	-0.030
00:00:09.516	-0.290	-0.035
00:00:09.518	-0.305	-0.035
00:00:09.520	-0.190	-0.040
00:00:09.522	-0.205	-0.040
00:00:09.524	-0.270	-0.045
00:00:09.526	-0.285	-0.050
00:00:09.528	-0.380	-0.055
00:00:09.530	-0.535	-0.055
00:00:09.532	-0.450	-0.055
00:00:09.534	-0.380	-0.050
00:00:09.536	-0.215	-0.040
00:00:09.538	-0.235	-0.025
00:00:09.540	-0.110	-0.005
00:00:09.542	-0.170	0.010
00:00:09.544	-0.140	0.025
00:00:09.546	-0.345	0.030
00:00:09.548	-0.330	0.030
00:00:09.550	-0.385	0.025
00:00:09.552	-0.370	0.015
00:00:09.554	-0.355	0.000
00:00:09.556	-0.230	-0.010
00:00:09.558	-0.195	-0.010
00:00:09.560	-0.140	-0.010
00:00:09.562	-0.150	-0.005
00:00:09.564	-0.245	0.005
00:00:09.566	-0.310	0.020
00:00:09.568	-0.270	0.035
00:00:09.570	-0.330	0.045
00:00:09.572	-0.290	0.060
00:00:09.574	-0.250	0.080
00:00:09.576	-0.215	0.100
00:00:09.578	-0.125	0.125
00:00:09.580	0.030	0.155
00:00:09.582	0.015	0.180
00:00:09.584	0.040	0.205
00:00:09.586	-0.050	0.210
00:00:09.588	-0.120	0.200
00:00:09.590	-0.200	0.170
00:00:09.592	-0.270	0.125
00:00:09.594	-0.220	0.060
00:00:09.596	-0.305	-0.005
00:00:09.598	-0.385	-0.070
00:00:09.600	-0.240	-0.115
00:00:09.602	-0.325	-0.145
00:00:09.604	-0.495	-0.155
00:00:09.606	-0.445	-0.145
00:00:09.608	-0.325	-0.115
00:00:09.610	-0.445	-0.085
00:00:09.612	-0.395	-0.055
00:00:09.614	-0.410	-0.035
00:00:09.616	-0.350	-0.025
00:00:09.618	-0.255	-0.025
00:00:09.620	-0.155	-0.035
00:00:09.622	-0.220	-0.045
00:00:09.624	-0.270	-0.060
00:00:09.626	-0.335	-0.065
00:00:09.628	-0.415	-0.065
00:00:09.630	-0.460	-0.060
00:00:09.632	-0.395	-0.055
00:00:09.634	-0.395	-0.045
00:00:09.636	-0.305	-0.035
00:00:09.638	-0.220	-0.035
00:00:09.640	-0.160	-0.035
00:00:09.642	-0.180	-0.040
00:00:09.644	-0.315	-0.045
00:00:09.646	-0.325	-0.050
00:00:09.648	-0.405	-0.055
00:00:09.650	-0.450	-0.055
00:00:09.652	-0.445	-0.055
00:00:09.654	-0.380	-0.050
00:00:09.656	-0.275	-0.040
00:00:09.658	-0.170	-0.035
00:00:09.660	-0.175	-0.025
00:00:09.662	-0.160	-0.020
00:00:09.664	-0.210	-0.010
00:00:09.666	-0.340	-0.005
00:00:09.668	-0.345	-0.005
00:00:09.670	-0.510	0.000
00:00:09.672	-0.385	0.000
00:00:09.674	-0.250	-0.005
00:00:09.676	-0.255	-0.005
00:00:09.678	-0.180	-0.010
00:00:09.680	-0.205	-0.015
00:00:09.682	-0.185	-0.015
00:00:09.684	-0.265	-0.015
00:00:09.686	-0.345	-0.010
00:00:09.688	-0.330	0.000
00:00:09.690	-0.365	0.010
00:00:09.692	-0.400	0.020
00:00:09.694	-0.310	0.025
00:00:09.696	-0.180	0.030
00:00:09.698	-0.135	0.035
00:00:09.700	-0.125	0.030
00:00:09.702	-0.165	0.025
00:00:09.704	-0.285	0.020
00:00:09.706	-0.300	0.010
00:00:09.708	-0.370	0.005
00:00:09.710	-0.450	0.000
00:00:09.712	-0.420	-0.005
00:00:09.714	-0.280	-0.005
00:00:09.716	-0.245	0.000
00:00:09.718	-0.160	0.000
00:00:09.720	-0.140	0.005
00:00:09.722	-0.125	0.005
00:00:09.724	-0.295	0.010
00:00:09.726	-0.300	0.015
00:00:09.728	-0.345	0.020
00:00:09.730	-0.305	0.030
00:00:09.732	-0.385	0.035
00:00:09.734	-0.345	0.040
00:00:09.736	-0.165	0.045
00:00:09.738	-0.065	0.050
00:00:09.740	-0.100	0.055
00:00:09.742	-0.155	0.060
00:00:09.744	-0.260	0.060
00:00:09.746	-0.220	0.065
00:00:09.748	-0.310	0.070
00:00:09.750	-0.375	0.075
00:00:09.752	-0.300	0.080
00:00:09.754	-0.235	0.080
00:00:09.756	-0.180	0.080
00:00:09.758	-0.050	0.080
00:00:09.760	-0.070	0.080
00:00:09.762	-0.085	0.070
00:00:09.764	-0.215	0.065
00:00:09.766	-0.250	0.060
00:00:09.768	-0.380	0.060
00:00:09.770	-0.350	0.060
00:00:09.772	-0.295	0.065
00:00:09.774	-0.180	0.075
00:00:09.776	-0.080	0.085
00:00:09.778	-0.080	0.100
00:00:09.780	-0.080	0.105
00:00:09.782	-0.095	0.115
00:00:09.784	-0.175	0.120
00:00:09.786	-0.205	0.120
00:00:09.788	-0.330	0.120
00:00:09.790	-0.260	0.125
00:00:09.792	-0.185	0.130
00:00:09.794	-0.095	0.140
00:00:09.796	-0.085	0.150
00:00:09.798	0.025	0.165
00:00:09.800	-0.005	0.180
00:00:09.802	-0.025	0.195
00:00:09.804	-0.060	0.205
00:00:09.806	-0.140	0.210
00:00:09.808	-0.230	0.210
00:00:09.810	-0.195	0.205
00:00:09.812	-0.150	0.205
00:00:09.814	-0.100	0.205
00:00:09.816	-0.010	0.210
00:00:09.818	0.075	0.220
00:00:09.820	0.110	0.230
00:00:09.822	0.050	0.240
00:00:09.824	-0.055	0.250
00:00:09.826	-0.095	0.255
00:00:09.828	-0.180	0.255
00:00:09.830	-0.140	0.250
00:00:09.832	-0.155	0.235
00:00:09.834	-0.065	0.220
00:00:09.836	-0.060	0.210
00:00:09.838	0.055	0.195
00:00:09.840	0.065	0.190
00:00:09.842	-0.065	0.185
00:00:09.844	-0.160	0.185
00:00:09.846	-0.155	0.185
00:00:09.848	-0.230	0.180
00:00:09.850	-0.190	0.175
00:00:09.852	-0.185	0.165
00:00:09.854	-0.185	0.150
00:00:09.856	-0.140	0.135
00:00:09.858	-0.005	0.120
00:00:09.860	-0.055	0.110
00:00:09.862	-0.125	0.100
00:00:09.864	-0.190	0.095
00:00:09.866	-0.280	0.085
00:00:09.868	-0.355	0.080
00:00:09.870	-0.415	0.075
00:00:09.872	-0.235	0.065
00:00:09.874	-0.200	0.050
00:00:09.876	-0.255	0.040
00:00:09.878	-0.120	0.030
00:00:09.880	-0.120	0.020
00:00:09.882	-0.200	0.015
00:00:09.884	-0.360	0.010
00:00:09.886	-0.340	0.010
00:00:09.888	-0.420	0.005
00:00:09.890	-0.460	0.005
00:00:09.892	-0.345	0.005
00:00:09.894	-0.260	0.000
00:00:09.896	-0.215	-0.005
00:00:09.898	-0.125	-0.005
00:00:09.900	-0.195	-0.010
00:00:09.902	-0.265	-0.005
00:00:09.904	-0.300	0.000
00:00:09.906	-0.370	0.005
00:00:09.908	-0.445	0.005
00:00:09.910	-0.395	0.005
00:00:09.912	-0.270	0.000
00:00:09.914	-0.235	-0.010
00:00:09.916	-0.270	-0.030
00:00:09.918	-0.205	-0.045
00:00:09.920	-0.220	-0.065
00:00:09.922	-0.445	-0.075
00:00:09.924	-0.450	-0.080
00:00:09.926	-0.395	-0.080
00:00:09.928	-0.465	-0.075
00:00:09.930	-0.475	-0.065
00:00:09.932	-0.345	-0.055
00:00:09.934	-0.270	-0.045
00:00:09.936	-0.280	-0.040
00:00:09.938	-0.210	-0.045
00:00:09.940	-0.285	-0.045
00:00:09.942	-0.270	-0.050
00:00:09.944	-0.330	-0.055
00:00:09.946	-0.415	-0.060
00:00:09.948	-0.540	-0.060
00:00:09.950	-0.455	-0.055
00:00:09.952	-0.400	-0.050
00:00:09.954	-0.340	-0.040
00:00:09.956	-0.250	-0.035
00:00:09.958	-0.170	-0.030
00:00:09.960	-0.130	-0.030
00:00:09.962	-0.240	-0.030
00:00:09.964	-0.380	-0.030
00:00:09.966	-0.455	-0.030
00:00:09.968	-0.440	-0.030
00:00:09.970	-0.435	-0.030
00:00:09.972	-0.325	-0.025
00:00:09.974	-0.280	-0.025
00:00:09.976	-0.185	-0.020
00:00:09.978	-0.220	-0.020
00:00:09.980	-0.240	-0.020
00:00:09.982	-0.260	-0.025
00:00:09.984	-0.320	-0.030
00:00:09.986	-0.435	-0.035
00:00:09.988	-0.500	-0.040
00:00:09.990	-0.455	-0.045
00:00:09.992	-0.375	-0.050
00:00:09.994	-0.255	-0.050
00:00:09.996	-0.245	-0.055
00:00:09.998	-0.200	-0.050
00:00:10.000	-0.200	-0.050
00:00:10.002	-0.305	-0.045
00:00:10.004	-0.380	-0.040
00:00:10.006	-0.475	-0.035
00:00:10.008	-0.490	-0.035
00:00:10.010	-0.475	-0.040
00:00:10.012	-0.295	-0.045
00:00:10.014	-0.320	-0.055
00:00:10.016	-0.225	-0.060
00:00:10.018	-0.255	-0.065
00:00:10.020	-0.295	-0.070
00:00:10.022	-0.295	-0.065
00:00:10.024	-0.395	-0.060
00:00:10.026	-0.505	-0.045
00:00:10.028	-0.480	-0.025
00:00:10.030	-0.505	-0.010
00:00:10.032	-0.265	0.005
00:00:10.034	-0.170	0.015
00:00:10.036	-0.140	0.020
00:00:10.038	-0.115	0.015
00:00:10.040	-0.220	0.005
00:00:10.042	-0.325	-0.005
00:00:10.044	-0.420	-0.020
00:00:10.046	-0.485	-0.035
00:00:10.048	-0.420	-0.045
00:00:10.050	-0.445	-0.050
00:00:10.052	-0.355	-0.055
00:00:10.054	-0.300	-0.055
00:00:10.056	-0.190	-0.050
00:00:10.058	-0.245	-0.045
00:00:10.060	-0.260	-0.040
00:00:10.062	-0.285	-0.035
00:00:10.064	-0.320	-0.030
00:00:10.066	-0.490	-0.030
00:00:10.068	-0.455	-0.025
00:00:10.070	-0.365	-0.030
00:00:10.072	-0.340	-0.030
00:00:10.074	-0.365	-0.030
00:00:10.076	-0.175	-0.030
00:00:10.078	-0.240	-0.030
00:00:10.080	-0.210	-0.025
00:00:10.082	-0.230	-0.025
00:00:10.084	-0.415	-0.025
00:00:10.086	-0.505	-0.025
00:00:10.088	-0.405	-0.025
00:00:10.090	-0.360	-0.030
00:00:10.092	-0.365	-0.035
00:00:10.094	-0.390	-0.045
00:00:10.096	-0.220	-0.055
00:00:10.098	-0.175	-0.060
00:00:10.100	-0.305	-0.065
00:00:10.102	-0.385	-0.065
00:00:10.104	-0.375	-0.060
00:00:10.106	-0.495	-0.055
00:00:10.108	-0.485	-0.045
00:00:10.110	-0.395	-0.035
00:00:10.112	-0.310	-0.025
00:00:10.114	-0.230	-0.020
00:00:10.116	-0.210	-0.020
00:00:10.118	-0.230	-0.025
00:00:10.120	-0.345	-0.030
00:00:10.122	-0.355	-0.040
00:00:10.124	-0.355	-0.045
00:00:10.126	-0.455	-0.050
00:00:10.128	-0.435	-0.050
00:00:10.130	-0.395	-0.050
00:00:10.132	-0.395	-0.040
00:00:10.134	-0.335	-0.035
00:00:10.136	-0.175	-0.030
00:00:10.138	-0.190	-0.025
00:00:10.140	-0.300	-0.025
00:00:10.142	-0.370	-0.030
00:00:10.144	-0.340	-0.040
00:00:10.146	-0.545	-0.045
00:00:10.148	-0.435	-0.050
00:00:10.150	-0.405	-0.050
00:00:10.152	-0.375	-0.050
00:00:10.154	-0.360	-0.045
00:00:10.156	-0.210	-0.040
00:00:10.158	-0.120	-0.030
00:00:10.160	-0.310	-0.025
00:00:10.162	-0.330	-0.020
00:00:10.164	-0.340	-0.020
00:00:10.166	-0.465	-0.025
00:00:10.168	-0.440	-0.030
00:00:10.170	-0.415	-0.035
00:00:10.172	-0.325	-0.040
00:00:10.174	-0.260	-0.045
00:00:10.176	-0.200	-0.050
00:00:10.178	-0.305	-0.050
00:00:10.180	-0.280	-0.055
00:00:10.182	-0.360	-0.055
00:00:10.184	-0.425	-0.055
00:00:10.186	-0.515	-0.060
00:00:10.188	-0.475	-0.060
00:00:10.190	-0.390	-0.060
00:00:10.192	-0.320	-0.060
00:00:10.194	-0.305	-0.055
00:00:10.196	-0.205	-0.050
00:00:10.198	-0.265	-0.045
00:00:10.200	-0.315	-0.040
00:00:10.202	-0.345	-0.035
00:00:10.204	-0.415	-0.035
00:00:10.206	-0.435	-0.035
00:00:10.208	-0.460	-0.035
00:00:10.210	-0.435	-0.040
00:00:10.212	-0.340	-0.045
00:00:10.214	-0.260	-0.050
00:00:10.216	-0.205	-0.050
00:00:10.218	-0.240	-0.045
00:00:10.220	-0.265	-0.045
00:00:10.222	-0.370	-0.040
00:00:10.224	-0.460	-0.040
00:00:10.226	-0.530	-0.045
00:00:10.228	-0.475	-0.050
00:00:10.230	-0.440	-0.060
00:00:10.232	-0.425	-0.070
00:00:10.234	-0.285	-0.080
00:00:10.236	-0.200	-0.085
00:00:10.238	-0.245	-0.085
00:00:10.240	-0.285	-0.075
00:00:10.242	-0.400	-0.060
00:00:10.244	-0.465	-0.040
00:00:10.246	-0.510	-0.020
00:00:10.248	-0.420	-0.005
00:00:10.250	-0.280	0.005
00:00:10.252	-0.265	0.005
00:00:10.254	-0.225	-0.005
00:00:10.256	-0.245	-0.020
00:00:10.258	-0.225	-0.040
00:00:10.260	-0.355	-0.055
00:00:10.262	-0.415	-0.070
00:00:10.264	-0.450	-0.075
00:00:10.266	-0.515	-0.075
00:00:10.268	-0.475	-0.070
00:00:10.270	-0.370	-0.065
00:00:10.272	-0.300	-0.065
00:00:10.274	-0.255	-0.060
00:00:10.276	-0.340	-0.065
00:00:10.278	-0.315	-0.070
00:00:10.280	-0.345	-0.075
00:00:10.282	-0.335	-0.075
00:00:10.284	-0.500	-0.070
00:00:10.286	-0.495	-0.060
00:00:10.288	-0.400	-0.045
00:00:10.290	-0.325	-0.030
00:00:10.292	-0.340	-0.010
00:00:10.294	-0.185	0.000
00:00:10.296	-0.205	0.005
00:00:10.298	-0.255	0.005
00:00:10.300	-0.345	0.000
00:00:10.302	-0.310	-0.010
00:00:10.304	-0.435	-0.020
00:00:10.306	-0.485	-0.025
00:00:10.308	-0.490	-0.030
00:00:10.310	-0.325	-0.025
00:00:10.312	-0.245	-0.020
00:00:10.314	-0.190	-0.010
00:00:10.316	-0.185	0.000
00:00:10.318	-0.305	0.005
00:00:10.320	-0.360	0.010
00:00:10.322	-0.285	0.010
00:00:10.324	-0.395	0.010
00:00:10.326	-0.395	0.010
00:00:10.328	-0.340	0.010
00:00:10.330	-0.270	0.015
00:00:10.332	-0.280	0.015
00:00:10.334	-0.150	0.020
00:00:10.336	-0.155	0.025
00:00:10.338	-0.240	0.025
00:00:10.340	-0.350	0.015
00:00:10.342	-0.350	0.005
00:00:10.344	-0.470	-0.010
00:00:10.346	-0.470	-0.025
00:00:10.348	-0.415	-0.040
00:00:10.350	-0.330	-0.050
00:00:10.352	-0.275	-0.050
00:00:10.354	-0.190	-0.050
00:00:10.356	-0.275	-0.040
00:00:10.358	-0.335	-0.030
00:00:10.360	-0.360	-0.025
00:00:10.362	-0.315	-0.020
00:00:10.364	-0.440	-0.020
00:00:10.366	-0.495	-0.025
00:00:10.368	-0.455	-0.035
00:00:10.370	-0.345	-0.050
00:00:10.372	-0.340	-0.060
00:00:10.374	-0.220	-0.065
00:00:10.376	-0.275	-0.065
00:00:10.378	-0.355	-0.060
00:00:10.380	-0.440	-0.050
00:00:10.382	-0.395	-0.045
00:00:10.384	-0.460	-0.040
00:00:10.386	-0.460	-0.040
00:00:10.388	-0.470	-0.045
00:00:10.390	-0.370	-0.050
00:00:10.392	-0.330	-0.060
00:00:10.394	-0.215	-0.065
00:00:10.396	-0.265	-0.070
00:00:10.398	-0.300	-0.060
00:00:10.400	-0.415	-0.050
00:00:10.402	-0.450	-0.035
00:00:10.404	-0.445	-0.020
00:00:10.406	-0.360	-0.005
00:00:10.408	-0.340	0.005
00:00:10.410	-0.265	0.005
00:00:10.412	-0.335	0.000
00:00:10.414	-0.225	-0.005
00:00:10.416	-0.145	-0.015
00:00:10.418	-0.295	-0.015
00:00:10.420	-0.345	-0.010
00:00:10.422	-0.385	0.005
00:00:10.424	-0.405	0.030
00:00:10.426	-0.335	0.060
00:00:10.428	-0.190	0.095
00:00:10.430	-0.205	0.130
00:00:10.432	-0.110	0.165
00:00:10.434	0.025	0.190
00:00:10.436	-0.050	0.215
00:00:10.438	-0.035	0.230
00:00:10.440	-0.035	0.235
00:00:10.442	-0.100	0.235
00:00:10.444	-0.240	0.230
00:00:10.446	-0.290	0.210
00:00:10.448	-0.170	0.185
00:00:10.450	-0.075	0.150
00:00:10.452	-0.175	0.105
00:00:10.454	-0.145	0.055
00:00:10.456	-0.220	0.000
00:00:10.458	-0.340	-0.050
00:00:10.460	-0.505	-0.090
00:00:10.462	-0.595	-0.120
00:00:10.464	-0.565	-0.135
00:00:10.466	-0.575	-0.140
00:00:10.468	-0.490	-0.125
00:00:10.470	-0.345	-0.105
00:00:10.472	-0.335	-0.080
00:00:10.474	-0.205	-0.050
00:00:10.476	-0.175	-0.025
00:00:10.478	-0.290	-0.010
00:00:10.480	-0.410	0.005
00:00:10.482	-0.440	0.005
00:00:10.484	-0.485	0.005
00:00:10.486	-0.395	-0.005
00:00:10.488	-0.355	-0.010
00:00:10.490	-0.325	-0.020
00:00:10.492	-0.260	-0.030
00:00:10.494	-0.215	-0.035
00:00:10.496	-0.300	-0.045
00:00:10.498	-0.320	-0.045
00:00:10.500	-0.405	-0.050
00:00:10.502	-0.440	-0.055
00:00:10.504	-0.465	-0.055
00:00:10.506	-0.535	-0.060
00:00:10.508	-0.440	-0.055
00:00:10.510	-0.320	-0.055
00:00:10.512	-0.225	-0.050
00:00:10.514	-0.215	-0.045
00:00:10.516	-0.235	-0.040
00:00:10.518	-0.355	-0.035
00:00:10.520	-0.410	-0.030
00:00:10.522	-0.450	-0.025
00:00:10.524	-0.430	-0.025
00:00:10.526	-0.495	-0.020
00:00:10.528	-0.335	-0.020
00:00:10.530	-0.245	-0.020
00:00:10.532	-0.225	-0.015
00:00:10.534	-0.205	-0.010
00:00:10.536	-0.260	-0.005
00:00:10.538	-0.345	0.000
00:00:10.540	-0.420	0.000
00:00:10.542	-0.370	0.000
00:00:10.544	-0.430	0.000
00:00:10.546	-0.410	-0.005
00:00:10.548	-0.405	-0.015
00:00:10.550	-0.290	-0.020
00:00:10.552	-0.290	-0.030
00:00:10.554	-0.205	-0.035
00:00:10.556	-0.260	-0.035
00:00:10.558	-0.325	-0.030
00:00:10.560	-0.435	-0.025
00:00:10.562	-0.395	-0.020
00:00:10.564	-0.505	-0.010
00:00:10.566	-0.405	0.000
00:00:10.568	-0.325	0.010
00:00:10.570	-0.245	0.020
00:00:10.572	-0.160	0.025
00:00:10.574	-0.130	0.025
00:00:10.576	-0.230	0.025
00:00:10.578	-0.315	0.025
00:00:10.580	-0.390	0.020
00:00:10.582	-0.405	0.015
00:00:10.584	-0.370	0.015
00:00:10.586	-0.385	0.015
00:00:10.588	-0.360	0.015
00:00:10.590	-0.275	0.015
00:00:10.592	-0.180	0.020
00:00:10.594	-0.135	0.025
00:00:10.596	-0.200	0.030
00:00:10.598	-0.300	0.035
00:00:10.600	-0.345	0.040
00:00:10.602	-0.425	0.040
00:00:10.604	-0.380	0.040
00:00:10.606	-0.375	0.045
00:00:10.608	-0.345	0.045
00:00:10.610	-0.215	0.045
00:00:10.612	-0.145	0.050
00:00:10.614	-0.155	0.055
00:00:10.616	-0.145	0.060
00:00:10.618	-0.175	0.065
00:00:10.620	-0.250	0.070
00:00:10.622	-0.385	0.075
00:00:10.624	-0.445	0.075
00:00:10.626	-0.375	0.075
00:00:10.628	-0.325	0.080
00:00:10.630	-0.215	0.085
00:00:10.632	-0.045	0.090
00:00:10.634	-0.035	0.100
00:00:10.636	-0.120	0.110
00:00:10.638	-0.210	0.120
00:00:10.640	-0.285	0.130
00:00:10.642	-0.325	0.140
00:00:10.644	-0.285	0.145
00:00:10.646	-0.260	0.150
00:00:10.648	-0.205	0.150
00:00:10.650	-0.125	0.155
00:00:10.652	-0.005	0.155
00:00:10.654	0.025	0.160
00:00:10.656	-0.080	0.165
00:00:10.658	-0.200	0.175
00:00:10.660	-0.180	0.180
00:00:10.662	-0.325	0.190
00:00:10.664	-0.290	0.195
00:00:10.666	-0.140	0.195
00:00:10.668	-0.100	0.190
00:00:10.670	-0.115	0.185
00:00:10.672	-0.030	0.180
00:00:10.674	-0.050	0.175
00:00:10.676	-0.055	0.180
00:00:10.678	-0.160	0.185
00:00:10.680	-0.170	0.200
00:00:10.682	-0.245	0.210
00:00:10.684	-0.240	0.225
00:00:10.686	-0.150	0.240
00:00:10.688	-0.010	0.245
00:00:10.690	-0.035	0.245
00:00:10.692	0.055	0.245
00:00:10.694	0.065	0.235
00:00:10.696	-0.020	0.225
00:00:10.698	-0.090	0.215
00:00:10.700	-0.185	0.205
00:00:10.702	-0.290	0.200
00:00:10.704	-0.285	0.190
00:00:10.706	-0.200	0.185
00:00:10.708	-0.135	0.175
00:00:10.710	-0.080	0.165
00:00:10.712	-0.015	0.150
00:00:10.714	-0.105	0.140
00:00:10.716	-0.170	0.125
00:00:10.718	-0.245	0.110
00:00:10.720	-0.275	0.100
00:00:10.722	-0.365	0.090
00:00:10.724	-0.330	0.085
00:00:10.726	-0.300	0.080
00:00:10.728	-0.210	0.075
00:00:10.730	-0.230	0.070
00:00:10.732	-0.160	0.060
00:00:10.734	-0.185	0.050
00:00:10.736	-0.200	0.040
00:00:10.738	-0.265	0.025
00:00:10.740	-0.375	0.010
00:00:10.742	-0.470	-0.010
00:00:10.744	-0.505	-0.020
00:00:10.746	-0.445	-0.035
00:00:10.748	-0.415	-0.040
00:00:10.750	-0.340	-0.040
00:00:10.752	-0.230	-0.035
00:00:10.754	-0.180	-0.030
00:00:10.756	-0.220	-0.020
00:00:10.758	-0.350	-0.005
00:00:10.760	-0.450	0.000
00:00:10.762	-0.530	0.005
00:00:10.764	-0.430	0.005
00:00:10.766	-0.365	0.000
00:00:10.768	-0.315	-0.010
00:00:10.770	-0.275	-0.020
00:00:10.772	-0.255	-0.025
00:00:10.774	-0.240	-0.035
00:00:10.776	-0.315	-0.035
00:00:10.778	-0.410	-0.035
00:00:10.780	-0.415	-0.030
00:00:10.782	-0.480	-0.020
00:00:10.784	-0.445	-0.015
00:00:10.786	-0.420	-0.010
00:00:10.788	-0.310	-0.005
00:00:10.790	-0.285	-0.005
00:00:10.792	-0.175	-0.010
00:00:10.794	-0.220	-0.010
00:00:10.796	-0.325	-0.015
00:00:10.798	-0.325	-0.015
00:00:10.800	-0.450	-0.015
00:00:10.802	-0.515	-0.015
00:00:10.804	-0.410	-0.015
00:00:10.806	-0.455	-0.015
00:00:10.808	-0.365	-0.015
00:00:10.810	-0.290	-0.015
00:00:10.812	-0.175	-0.025
00:00:10.814	-0.220	-0.030
00:00:10.816	-0.330	-0.035
00:00:10.818	-0.430	-0.040
00:00:10.820	-0.420	-0.045
00:00:10.822	-0.520	-0.045
00:00:10.824	-0.560	-0.045
00:00:10.826	-0.435	-0.045
00:00:10.828	-0.320	-0.045
00:00:10.830	-0.265	-0.045
00:00:10.832	-0.205	-0.045
00:00:10.834	-0.245	-0.050
00:00:10.836	-0.340	-0.055
00:00:10.838	-0.485	-0.065
00:00:10.840	-0.505	-0.070
00:00:10.842	-0.530	-0.070
00:00:10.844	-0.465	-0.065
00:00:10.846	-0.475	-0.055
00:00:10.848	-0.355	-0.045
00:00:10.850	-0.220	-0.030
00:00:10.852	-0.130	-0.015
00:00:10.854	-0.145	-0.005
00:00:10.856	-0.260	0.005
00:00:10.858	-0.375	0.005
00:00:10.860	-0.525	0.000
00:00:10.862	-0.505	-0.010
00:00:10.864	-0.495	-0.020
00:00:10.866	-0.405	-0.030
00:00:10.868	-0.320	-0.035
00:00:10.870	-0.165	-0.035
00:00:10.872	-0.190	-0.025
00:00:10.874	-0.300	-0.015
00:00:10.876	-0.320	-0.005
00:00:10.878	-0.310	0.005
00:00:10.880	-0.435	0.010
00:00:10.882	-0.485	0.010
00:00:10.884	-0.495	0.000
00:00:10.886	-0.370	-0.015
00:00:10.888	-0.315	-0.030
00:00:10.890	-0.300	-0.045
00:00:10.892	-0.210	-0.055
00:00:10.894	-0.275	-0.060
00:00:10.896	-0.340	-0.060
00:00:10.898	-0.395	-0.055
00:00:10.900	-0.510	-0.050
00:00:10.902	-0.525	-0.040
00:00:10.904	-0.455	-0.035
00:00:10.906	-0.335	-0.030
00:00:10.908	-0.355	-0.030
00:00:10.910	-0.220	-0.030
00:00:10.912	-0.240	-0.030
00:00:10.914	-0.300	-0.025
00:00:10.916	-0.300	-0.020
00:00:10.918	-0.390	-0.015
00:00:10.920	-0.480	-0.010
00:00:10.922	-0.405	-0.005
00:00:10.924	-0.440	-0.010
00:00:10.926	-0.315	-0.015
00:00:10.928	-0.370	-0.020
00:00:10.930	-0.270	-0.030
00:00:10.932	-0.240	-0.040
00:00:10.934	-0.260	-0.045
00:00:10.936	-0.415	-0.045
00:00:10.938	-0.360	-0.040
00:00:10.940	-0.450	-0.030
00:00:10.942	-0.480	-0.020
00:00:10.944	-0.465	-0.015
00:00:10.946	-0.385	-0.010
00:00:10.948	-0.350	-0.010
00:00:10.950	-0.160	-0.015
00:00:10.952	-0.165	-0.025
00:00:10.954	-0.285	-0.035
00:00:10.956	-0.360	-0.045
00:00:10.958	-0.490	-0.050
00:00:10.960	-0.580	-0.050
00:00:10.962	-0.505	-0.050
00:00:10.964	-0.395	-0.045
00:00:10.966	-0.345	-0.040
00:00:10.968	-0.335	-0.030
00:00:10.970	-0.250	-0.025
00:00:10.972	-0.200	-0.025
00:00:10.974	-0.270	-0.025
00:00:10.976	-0.375	-0.025
00:00:10.978	-0.390	-0.025
00:00:10.980	-0.525	-0.030
00:00:10.982	-0.505	-0.030
00:00:10.984	-0.380	-0.030
00:00:10.986	-0.315	-0.030
00:00:10.988	-0.365	-0.030
00:00:10.990	-0.275	-0.035
00:00:10.992	-0.230	-0.040
00:00:10.994	-0.265	-0.045
00:00:10.996	-0.355	-0.055
00:00:10.998	-0.490	-0.060
00:00:11.000	-0.595	-0.065
00:00:11.002	-0.525	-0.065
00:00:11.004	-0.455	-0.060
00:00:11.006	-0.420	-0.060
00:00:11.008	-0.315	-0.050
00:00:11.010	-0.210	-0.045
00:00:11.012	-0.235	-0.035
00:00:11.014	-0.265	-0.030
00:00:11.016	-0.370	-0.030
00:00:11.018	-0.380	-0.030
00:00:11.020	-0.535	-0.035
00:00:11.022	-0.550	-0.045
00:00:11.024	-0.445	-0.050
00:00:11.026	-0.370	-0.060
00:00:11.028	-0.335	-0.065
00:00:11.030	-0.275	-0.065
00:00:11.032	-0.280	-0.065
00:00:11.034	-0.290	-0.055
00:00:11.036	-0.400	-0.045
00:00:11.038	-0.415	-0.035
00:00:11.040	-0.500	-0.030
00:00:11.042	-0.505	-0.020
00:00:11.044	-0.385	-0.020
00:00:11.046	-0.335	-0.025
00:00:11.048	-0.295	-0.030
00:00:11.050	-0.280	-0.040
00:00:11.052	-0.290	-0.050
00:00:11.054	-0.340	-0.055
00:00:11.056	-0.420	-0.060
00:00:11.058	-0.460	-0.065
00:00:11.060	-0.460	-0.065
00:00:11.062	-0.470	-0.060
00:00:11.064	-0.490	-0.060
00:00:11.066	-0.435	-0.060
00:00:11.068	-0.345	-0.055
00:00:11.070	-0.230	-0.055
00:00:11.072	-0.275	-0.050
00:00:11.074	-0.310	-0.050
00:00:11.076	-0.330	-0.045
00:00:11.078	-0.385	-0.045
00:00:11.080	-0.500	-0.040
00:00:11.082	-0.495	-0.045
00:00:11.084	-0.465	-0.045
00:00:11.086	-0.310	-0.055
00:00:11.088	-0.345	-0.065
00:00:11.090	-0.280	-0.075
00:00:11.092	-0.275	-0.080
00:00:11.094	-0.415	-0.085
00:00:11.096	-0.435	-0.085
00:00:11.098	-0.430	-0.075
00:00:11.100	-0.485	-0.060
00:00:11.102	-0.475	-0.045
00:00:11.104	-0.425	-0.030
00:00:11.106	-0.330	-0.020
00:00:11.108	-0.275	-0.015
00:00:11.110	-0.205	-0.020
00:00:11.112	-0.225	-0.025
00:00:11.114	-0.350	-0.040
00:00:11.116	-0.440	-0.055
00:00:11.118	-0.540	-0.065
00:00:11.120	-0.565	-0.075
00:00:11.122	-0.505	-0.075
00:00:11.124	-0.365	-0.075
00:00:11.126	-0.330	-0.065
00:00:11.128	-0.320	-0.055
00:00:11.130	-0.245	-0.045
00:00:11.132	-0.225	-0.040
00:00:11.134	-0.355	-0.035
00:00:11.136	-0.455	-0.035
00:00:11.138	-0.545	-0.040
00:00:11.140	-0.470	-0.045
00:00:11.142	-0.495	-0.050
00:00:11.144	-0.400	-0.050
00:00:11.146	-0.315	-0.050
00:00:11.148	-0.295	-0.045
00:00:11.150	-0.245	-0.040
00:00:11.152	-0.210	-0.035
00:00:11.154	-0.340	-0.030
00:00:11.156	-0.415	-0.030
00:00:11.158	-0.490	-0.035
00:00:11.160	-0.485	-0.040
00:00:11.162	-0.510	-0.045
00:00:11.164	-0.395	-0.050
00:00:11.166	-0.305	-0.050
00:00:11.168	-0.265	-0.050
00:00:11.170	-0.260	-0.040
00:00:11.172	-0.310	-0.030
00:00:11.174	-0.350	-0.020
00:00:11.176	-0.355	-0.015
00:00:11.178	-0.440	-0.015
00:00:11.180	-0.500	-0.025
00:00:11.182	-0.400	-0.035
00:00:11.184	-0.445	-0.055
00:00:11.186	-0.420	-0.075
00:00:11.188	-0.290	-0.095
00:00:11.190	-0.320	-0.105
00:00:11.192	-0.335	-0.110
00:00:11.194	-0.485	-0.105
00:00:11.196	-0.470	-0.090
00:00:11.198	-0.440	-0.070
00:00:11.200	-0.485	-0.045
00:00:11.202	-0.450	-0.025
00:00:11.204	-0.320	-0.010
00:00:11.206	-0.300	0.000
00:00:11.208	-0.210	0.000
00:00:11.210	-0.235	0.000
00:00:11.212	-0.280	-0.010
00:00:11.214	-0.355	-0.020
00:00:11.216	-0.375	-0.030
00:00:11.218	-0.485	-0.035
00:00:11.220	-0.535	-0.040
00:00:11.222	-0.560	-0.040
00:00:11.224	-0.350	-0.040
00:00:11.226	-0.275	-0.040
00:00:11.228	-0.230	-0.035
00:00:11.230	-0.270	-0.035
00:00:11.232	-0.290	-0.035
00:00:11.234	-0.305	-0.035
00:00:11.236	-0.450	-0.035
00:00:11.238	-0.600	-0.035
00:00:11.240	-0.435	-0.040
00:00:11.242	-0.455	-0.040
00:00:11.244	-0.345	-0.040
00:00:11.246	-0.305	-0.040
00:00:11.248	-0.220	-0.035
00:00:11.250	-0.250	-0.030
00:00:11.252	-0.285	-0.025
00:00:11.254	-0.415	-0.020
00:00:11.256	-0.395	-0.015
00:00:11.258	-0.475	-0.015
00:00:11.260	-0.400	-0.015
00:00:11.262	-0.420	-0.020
00:00:11.264	-0.370	-0.035
00:00:11.266	-0.350	-0.045
00:00:11.268	-0.315	-0.060
00:00:11.270	-0.340	-0.070
00:00:11.272	-0.390	-0.075
00:00:11.274	-0.430	-0.075
00:00:11.276	-0.400	-0.070
00:00:11.278	-0.425	-0.055
00:00:11.280	-0.540	-0.045
00:00:11.282	-0.395	-0.030
00:00:11.284	-0.265	-0.025
00:00:11.286	-0.300	-0.025
00:00:11.288	-0.355	-0.030
00:00:11.290	-0.290	-0.040
00:00:11.292	-0.350	-0.055
00:00:11.294	-0.425	-0.065
00:00:11.296	-0.400	-0.065
00:00:11.298	-0.490	-0.065
00:00:11.300	-0.535	-0.055
00:00:11.302	-0.395	-0.040
00:00:11.304	-0.315	-0.025
00:00:11.306	-0.320	-0.015
00:00:11.308	-0.220	-0.005
00:00:11.310	-0.235	-0.010
00:00:11.312	-0.310	-0.015
00:00:11.314	-0.365	-0.030
00:00:11.316	-0.380	-0.045
00:00:11.318	-0.515	-0.055
00:00:11.320	-0.530	-0.065
00:00:11.322	-0.460	-0.065
00:00:11.324	-0.340	-0.060
00:00:11.326	-0.320	-0.055
00:00:11.328	-0.275	-0.045
00:00:11.330	-0.275	-0.040
00:00:11.332	-0.265	-0.035
00:00:11.334	-0.360	-0.035
00:00:11.336	-0.340	-0.040
00:00:11.338	-0.480	-0.045
00:00:11.340	-0.635	-0.055
00:00:11.342	-0.465	-0.060
00:00:11.344	-0.355	-0.060
00:00:11.346	-0.350	-0.055
00:00:11.348	-0.220	-0.045
00:00:11.350	-0.225	-0.035
00:00:11.352	-0.240	-0.020
00:00:11.354	-0.350	-0.015
00:00:11.356	-0.420	-0.005
00:00:11.358	-0.495	-0.005
00:00:11.360	-0.410	-0.005
00:00:11.362	-0.360	-0.005
00:00:11.364	-0.360	-0.010
00:00:11.366	-0.345	-0.015
00:00:11.368	-0.220	-0.015
00:00:11.370	-0.165	-0.020
00:00:11.372	-0.230	-0.020
00:00:11.374	-0.400	-0.020
00:00:11.376	-0.415	-0.025
00:00:11.378	-0.540	-0.025
00:00:11.380	-0.490	-0.025
00:00:11.382	-0.375	-0.025
00:00:11.384	-0.300	-0.030
00:00:11.386	-0.320	-0.030
00:00:11.388	-0.260	-0.030
00:00:11.390	-0.155	-0.030
00:00:11.392	-0.310	-0.025
00:00:11.394	-0.405	-0.020
00:00:11.396	-0.400	-0.015
00:00:11.398	-0.475	-0.005
00:00:11.400	-0.520	0.000
00:00:11.402	-0.450	0.010
00:00:11.404	-0.165	0.015
00:00:11.406	-0.150	0.025
00:00:11.408	-0.205	0.030
00:00:11.410	-0.190	0.030
00:00:11.412	-0.230	0.030
00:00:11.414	-0.325	0.025
00:00:11.416	-0.410	0.020
00:00:11.418	-0.490	0.015
00:00:11.420	-0.445	0.005
00:00:11.422	-0.375	0.000
00:00:11.424	-0.305	-0.010
00:00:11.426	-0.250	-0.015
00:00:11.428	-0.190	-0.025
00:00:11.430	-0.170	-0.030
00:00:11.432	-0.330	-0.030
00:00:11.434	-0.420	-0.035
00:00:11.436	-0.535	-0.035
00:00:11.438	-0.550	-0.035
00:00:11.440	-0.445	-0.035
00:00:11.442	-0.305	-0.035
00:00:11.444	-0.290	-0.040
00:00:11.446	-0.285	-0.040
00:00:11.448	-0.275	-0.040
00:00:11.450	-0.320	-0.040
00:00:11.452	-0.350	-0.045
00:00:11.454	-0.355	-0.050
00:00:11.456	-0.510	-0.055
00:00:11.458	-0.490	-0.060
00:00:11.460	-0.465	-0.070
00:00:11.462	-0.440	-0.075
00:00:11.464	-0.370	-0.075
00:00:11.466	-0.295	-0.075
00:00:11.468	-0.290	-0.065
00:00:11.470	-0.315	-0.050
00:00:11.472	-0.340	-0.035
00:00:11.474	-0.340	-0.020
00:00:11.476	-0.405	-0.005
00:00:11.478	-0.425	0.005
00:00:11.480	-0.360	0.005
00:00:11.482	-0.365	0.000
00:00:11.484	-0.315	-0.015
00:00:11.486	-0.265	-0.030
00:00:11.488	-0.330	-0.040
00:00:11.490	-0.285	-0.045
00:00:11.492	-0.270	-0.040
00:00:11.494	-0.295	-0.025
00:00:11.496	-0.420	0.005
00:00:11.498	-0.425	0.035
00:00:11.500	-0.400	0.070
00:00:11.502	-0.235	0.105
00:00:11.504	-0.110	0.130
00:00:11.506	0.005	0.150
00:00:11.508	-0.005	0.165
00:00:11.510	-0.080	0.175
00:00:11.512	-0.140	0.185
00:00:11.514	-0.195	0.195
00:00:11.516	-0.250	0.210
00:00:11.518	-0.215	0.220
00:00:11.520	-0.140	0.230
00:00:11.522	-0.035	0.225
00:00:11.524	0.030	0.205
00:00:11.526	-0.005	0.170
00:00:11.528	-0.090	0.115
00:00:11.530	-0.265	0.050
00:00:11.532	-0.425	-0.020
00:00:11.534	-0.475	-0.085
00:00:11.536	-0.645	-0.130
00:00:11.538	-0.615	-0.155
00:00:11.540	-0.505	-0.155
00:00:11.542	-0.435	-0.135
00:00:11.544	-0.290	-0.095
00:00:11.546	-0.195	-0.050
00:00:11.548	-0.205	-0.010
00:00:11.550	-0.230	0.015
00:00:11.552	-0.320	0.020
00:00:11.554	-0.360	0.010
00:00:11.556	-0.420	-0.010
00:00:11.558	-0.535	-0.040
00:00:11.560	-0.575	-0.070
00:00:11.562	-0.405	-0.090
00:00:11.564	-0.350	-0.095
00:00:11.566	-0.205	-0.085
00:00:11.568	-0.245	-0.065
00:00:11.570	-0.300	-0.040
00:00:11.572	-0.325	-0.015
00:00:11.574	-0.295	0.005
00:00:11.576	-0.460	0.020
00:00:11.578	-0.505	0.020
00:00:11.580	-0.360	0.010
00:00:11.582	-0.245	-0.005
00:00:11.584	-0.325	-0.025
00:00:11.586	-0.220	-0.045
00:00:11.588	-0.245	-0.055
00:00:11.590	-0.335	-0.065
00:00:11.592	-0.380	-0.065
00:00:11.594	-0.425	-0.065
00:00:11.596	-0.555	-0.060
00:00:11.598	-0.480	-0.055
00:00:11.600	-0.420	-0.045
00:00:11.602	-0.290	-0.035
00:00:11.604	-0.265	-0.030
00:00:11.606	-0.185	-0.020
00:00:11.608	-0.195	-0.010
00:00:11.610	-0.275	0.000
00:00:11.612	-0.385	0.005
00:00:11.614	-0.395	0.005
00:00:11.616	-0.400	0.005
00:00:11.618	-0.400	0.000
00:00:11.620	-0.360	-0.005
00:00:11.622	-0.365	-0.010
00:00:11.624	-0.300	-0.010
00:00:11.626	-0.255	-0.015
00:00:11.628	-0.170	-0.010
00:00:11.630	-0.230	-0.005
00:00:11.632	-0.295	0.000
00:00:11.634	-0.370	0.010
00:00:11.636	-0.385	0.010
00:00:11.638	-0.430	0.010
00:00:11.640	-0.470	0.010
00:00:11.642	-0.245	0.000
00:00:11.644	-0.300	-0.005
00:00:11.646	-0.195	-0.015
00:00:11.648	-0.225	-0.015
00:00:11.650	-0.295	-0.015
00:00:11.652	-0.320	-0.010
00:00:11.654	-0.305	0.000
00:00:11.656	-0.430	0.010
00:00:11.658	-0.420	0.020
00:00:11.660	-0.370	0.030
00:00:11.662	-0.210	0.035
00:00:11.664	-0.205	0.035
00:00:11.666	-0.145	0.030
00:00:11.668	-0.170	0.030
00:00:11.670	-0.290	0.025
00:00:11.672	-0.345	0.020
00:00:11.674	-0.350	0.020
00:00:11.676	-0.360	0.025
00:00:11.678	-0.320	0.030
00:00:11.680	-0.275	0.040
00:00:11.682	-0.315	0.045
00:00:11.684	-0.230	0.055
00:00:11.686	-0.105	0.060
00:00:11.688	-0.135	0.065
00:00:11.690	-0.215	0.070
00:00:11.692	-0.295	0.070
00:00:11.694	-0.290	0.070
00:00:11.696	-0.405	0.070
00:00:11.698	-0.380	0.075
00:00:11.700	-0.265	0.075
00:00:11.702	-0.130	0.080
00:00:11.704	-0.055	0.080
00:00:11.706	-0.110	0.085
00:00:11.708	-0.175	0.090
00:00:11.710	-0.180	0.095
00:00:11.712	-0.295	0.095
00:00:11.714	-0.340	0.100
00:00:11.716	-0.300	0.105
00:00:11.718	-0.210	0.115
00:00:11.720	-0.210	0.125
00:00:11.722	-0.140	0.135
00:00:11.724	-0.110	0.145
00:00:11.726	-0.035	0.155
00:00:11.728	-0.035	0.165
00:00:11.730	-0.110	0.170
00:00:11.732	-0.160	0.175
00:00:11.734	-0.235	0.170
00:00:11.736	-0.280	0.165
00:00:11.738	-0.275	0.160
00:00:11.740	-0.225	0.150
00:00:11.742	-0.120	0.140
00:00:11.744	-0.030	0.140
00:00:11.746	-0.075	0.140
00:00:11.748	-0.015	0.150
00:00:11.750	-0.045	0.165
00:00:11.752	-0.235	0.180
00:00:11.754	-0.255	0.195
00:00:11.756	-0.135	0.215
00:00:11.758	-0.110	0.225
00:00:11.760	-0.130	0.230
00:00:11.762	-0.090	0.230
00:00:11.764	0.010	0.220
00:00:11.766	0.035	0.215
00:00:11.768	-0.015	0.205
00:00:11.770	-0.135	0.195
00:00:11.772	-0.165	0.190
00:00:11.774	-0.190	0.190
00:00:11.776	-0.200	0.195
00:00:11.778	-0.150	0.195
00:00:11.780	-0.135	0.195
00:00:11.782	-0.115	0.195
00:00:11.784	-0.045	0.190
00:00:11.786	-0.020	0.180
00:00:11.788	0.045	0.170
00:00:11.790	-0.080	0.155
00:00:11.792	-0.245	0.150
00:00:11.794	-0.335	0.140
00:00:11.796	-0.295	0.140
00:00:11.798	-0.270	0.140
00:00:11.800	-0.130	0.135
00:00:11.802	-0.065	0.130
00:00:11.804	-0.070	0.120
00:00:11.806	-0.065	0.100
00:00:11.808	-0.165	0.080
00:00:11.810	-0.325	0.055
00:00:11.812	-0.350	0.030
00:00:11.814	-0.375	0.010
00:00:11.816	-0.375	0.000
00:00:11.818	-0.340	-0.005
00:00:11.820	-0.300	0.000
00:00:11.822	-0.330	0.005
00:00:11.824	-0.195	0.010
00:00:11.826	-0.185	0.010
00:00:11.828	-0.175	0.005
00:00:11.830	-0.225	0.000
00:00:11.832	-0.335	-0.015
00:00:11.834	-0.520	-0.025
00:00:11.836	-0.475	-0.035
00:00:11.838	-0.470	-0.035
00:00:11.840	-0.320	-0.030
00:00:11.842	-0.295	-0.025
00:00:11.844	-0.140	-0.010
00:00:11.846	-0.165	0.005
00:00:11.848	-0.215	0.010
00:00:11.850	-0.300	0.015
00:00:11.852	-0.350	0.005
00:00:11.854	-0.445	-0.005
00:00:11.856	-0.455	-0.020
00:00:11.858	-0.420	-0.035
00:00:11.860	-0.380	-0.045
00:00:11.862	-0.350	-0.045
00:00:11.864	-0.220	-0.040
00:00:11.866	-0.200	-0.020
00:00:11.868	-0.215	0.000
00:00:11.870	-0.185	0.020
00:00:11.872	-0.280	0.035
00:00:11.874	-0.385	0.040
00:00:11.876	-0.450	0.035
00:00:11.878	-0.350	0.020
00:00:11.880	-0.270	0.000
00:00:11.882	-0.330	-0.025
00:00:11.884	-0.260	-0.050
00:00:11.886	-0.260	-0.065
00:00:11.888	-0.255	-0.070
00:00:11.890	-0.355	-0.060
00:00:11.892	-0.325	-0.045
00:00:11.894	-0.465	-0.025
00:00:11.896	-0.500	-0.005
00:00:11.898	-0.350	0.010
00:00:11.900	-0.295	0.015
00:00:11.902	-0.240	0.015
00:00:11.904	-0.125	0.000
00:00:11.906	-0.205	-0.015
00:00:11.908	-0.265	-0.030
00:00:11.910	-0.375	-0.045
00:00:11.912	-0.380	-0.055
00:00:11.914	-0.475	-0.055
00:00:11.916	-0.470	-0.055
00:00:11.918	-0.445	-0.045
00:00:11.920	-0.305	-0.030
00:00:11.922	-0.290	-0.020
00:00:11.924	-0.145	-0.015
00:00:11.926	-0.120	-0.015
00:00:11.928	-0.255	-0.015
00:00:11.930	-0.360	-0.020
00:00:11.932	-0.330	-0.020
00:00:11.934	-0.470	-0.025
00:00:11.936	-0.440	-0.025
00:00:11.938	-0.405	-0.020
00:00:11.940	-0.315	-0.015
00:00:11.942	-0.265	-0.005
00:00:11.944	-0.120	0.000
00:00:11.946	-0.095	0.010
00:00:11.948	-0.175	0.015
00:00:11.950	-0.285	0.015
00:00:11.952	-0.340	0.015
00:00:11.954	-0.465	0.010
00:00:11.956	-0.515	0.005
00:00:11.958	-0.320	0.000
00:00:11.960	-0.275	-0.010
00:00:11.962	-0.240	-0.020
00:00:11.964	-0.210	-0.025
00:00:11.966	-0.170	-0.030
00:00:11.968	-0.275	-0.035
00:00:11.970	-0.370	-0.030
00:00:11.972	-0.370	-0.025
00:00:11.974	-0.395	-0.015
00:00:11.976	-0.405	-0.010
00:00:11.978	-0.340	-0.005
00:00:11.980	-0.195	0.000
00:00:11.982	-0.215	-0.005
00:00:11.984	-0.175	-0.015
00:00:11.986	-0.205	-0.025
00:00:11.988	-0.350	-0.040
00:00:11.990	-0.340	-0.050
00:00:11.992	-0.485	-0.060
00:00:11.994	-0.475	-0.060
00:00:11.996	-0.390	-0.055
00:00:11.998	-0.315	-0.040
00:00:12.000	-0.285	-0.025
00:00:12.002	-0.205	-0.005
00:00:12.004	-0.125	0.005
00:00:12.006	-0.175	0.015
00:00:12.008	-0.220	0.015
00:00:12.010	-0.310	0.010
00:00:12.012	-0.385	0.000
00:00:12.014	-0.500	-0.015
00:00:12.016	-0.500	-0.030
00:00:12.018	-0.335	-0.035
00:00:12.020	-0.265	-0.040
00:00:12.022	-0.230	-0.040
00:00:12.024	-0.175	-0.030
00:00:12.026	-0.160	-0.020
00:00:12.028	-0.240	-0.010
00:00:12.030	-0.360	-0.005
00:00:12.032	-0.390	0.000
00:00:12.034	-0.365	0.000
00:00:12.036	-0.405	-0.010
00:00:12.038	-0.385	-0.020
00:00:12.040	-0.355	-0.030
00:00:12.042	-0.200	-0.040
00:00:12.044	-0.240	-0.040
00:00:12.046	-0.145	-0.040
00:00:12.048	-0.240	-0.035
00:00:12.050	-0.310	-0.030
00:00:12.052	-0.405	-0.020
00:00:12.054	-0.495	-0.015
00:00:12.056	-0.445	-0.015
00:00:12.058	-0.310	-0.020
00:00:12.060	-0.290	-0.025
00:00:12.062	-0.210	-0.035
00:00:12.064	-0.185	-0.045
00:00:12.066	-0.270	-0.050
00:00:12.068	-0.300	-0.045
00:00:12.070	-0.300	-0.035
00:00:12.072	-0.415	-0.025
00:00:12.074	-0.435	-0.015
00:00:12.076	-0.355	-0.005
00:00:12.078	-0.285	0.000
00:00:12.080	-0.220	-0.005
00:00:12.082	-0.140	-0.015
00:00:12.084	-0.225	-0.030
00:00:12.086	-0.280	-0.045
00:00:12.088	-0.310	-0.055
00:00:12.090	-0.340	-0.065
00:00:12.092	-0.500	-0.065
00:00:12.094	-0.480	-0.055
00:00:12.096	-0.350	-0.040
00:00:12.098	-0.300	-0.025
00:00:12.100	-0.295	-0.015
00:00:12.102	-0.135	-0.005
00:00:12.104	-0.155	-0.005
00:00:12.106	-0.175	-0.005
00:00:12.108	-0.295	-0.015
00:00:12.110	-0.410	-0.025
00:00:12.112	-0.525	-0.035
00:00:12.114	-0.390	-0.045
00:00:12.116	-0.380	-0.050
00:00:12.118	-0.320	-0.045
00:00:12.120	-0.280	-0.045
00:00:12.122	-0.150	-0.040
00:00:12.124	-0.185	-0.035
00:00:12.126	-0.275	-0.025
00:00:12.128	-0.340	-0.020
00:00:12.130	-0.335	-0.015
00:00:12.132	-0.365	-0.010
00:00:12.134	-0.365	0.000
00:00:12.136	-0.300	0.005
00:00:12.138	-0.230	0.010
00:00:12.140	-0.225	0.010
00:00:12.142	-0.165	0.010
00:00:12.144	-0.190	0.005
00:00:12.146	-0.255	0.000
00:00:12.148	-0.260	-0.005
00:00:12.150	-0.310	-0.010
00:00:12.152	-0.460	-0.010
00:00:12.154	-0.370	-0.005
00:00:12.156	-0.380	0.005
00:00:12.158	-0.220	0.015
00:00:12.160	-0.155	0.025
00:00:12.162	-0.080	0.035
00:00:12.164	-0.095	0.035
00:00:12.166	-0.150	0.030
00:00:12.168	-0.260	0.020
00:00:12.170	-0.335	0.005
00:00:12.172	-0.455	-0.005
00:00:12.174	-0.425	-0.015
00:00:12.176	-0.385	-0.025
00:00:12.178	-0.295	-0.025
00:00:12.180	-0.180	-0.020
00:00:12.182	-0.100	-0.015
00:00:12.184	-0.130	-0.010
00:00:12.186	-0.210	-0.005
00:00:12.188	-0.310	-0.010
00:00:12.190	-0.320	-0.015
00:00:12.192	-0.480	-0.030
00:00:12.194	-0.480	-0.040
00:00:12.196	-0.390	-0.050
00:00:12.198	-0.320	-0.060
00:00:12.200	-0.355	-0.065
00:00:12.202	-0.145	-0.065
00:00:12.204	-0.130	-0.065
00:00:12.206	-0.255	-0.065
00:00:12.208	-0.365	-0.065
00:00:12.210	-0.370	-0.070
00:00:12.212	-0.535	-0.070
00:00:12.214	-0.515	-0.075
00:00:12.216	-0.410	-0.075
00:00:12.218	-0.355	-0.075
00:00:12.220	-0.255	-0.070
00:00:12.222	-0.135	-0.060
00:00:12.224	-0.155	-0.050
00:00:12.226	-0.200	-0.040
00:00:12.228	-0.285	-0.035
00:00:12.230	-0.395	-0.025
00:00:12.232	-0.480	-0.020
00:00:12.234	-0.445	-0.010
00:00:12.236	-0.385	-0.005
00:00:12.238	-0.260	0.000
00:00:12.240	-0.195	0.005
00:00:12.242	-0.015	0.010
00:00:12.244	-0.090	0.015
00:00:12.246	-0.210	0.020
00:00:12.248	-0.335	0.020
00:00:12.250	-0.260	0.015
00:00:12.252	-0.425	0.010
00:00:12.254	-0.405	0.005
00:00:12.256	-0.370	0.005
00:00:12.258	-0.305	0.005
00:00:12.260	-0.235	0.015
00:00:12.262	-0.070	0.030
00:00:12.264	0.015	0.050
00:00:12.266	-0.070	0.075
00:00:12.268	-0.180	0.105
00:00:12.270	-0.235	0.135
00:00:12.272	-0.295	0.160
00:00:12.274	-0.255	0.185
00:00:12.276	-0.110	0.205
00:00:12.278	0.020	0.215
00:00:12.280	0.045	0.215
00:00:12.282	0.145	0.200
00:00:12.284	0.065	0.165
00:00:12.286	-0.035	0.120
00:00:12.288	-0.220	0.060
00:00:12.290	-0.500	-0.005
00:00:12.292	-0.495	-0.075
00:00:12.294	-0.585	-0.135
00:00:12.296	-0.600	-0.185
00:00:12.298	-0.485	-0.215
00:00:12.300	-0.345	-0.220
00:00:12.302	-0.255	-0.210
00:00:12.304	-0.240	-0.180
00:00:12.306	-0.300	-0.140
00:00:12.308	-0.385	-0.100
00:00:12.310	-0.465	-0.065
00:00:12.312	-0.435	-0.040
00:00:12.314	-0.400	-0.025
00:00:12.316	-0.320	-0.025
00:00:12.318	-0.270	-0.030
00:00:12.320	-0.165	-0.035
00:00:12.322	-0.180	-0.045
00:00:12.324	-0.245	-0.050
00:00:12.326	-0.250	-0.050
00:00:12.328	-0.310	-0.045
00:00:12.330	-0.360	-0.045
00:00:12.332	-0.405	-0.040
00:00:12.334	-0.470	-0.045
00:00:12.336	-0.405	-0.045
00:00:12.338	-0.295	-0.055
00:00:12.340	-0.180	-0.060
00:00:12.342	-0.120	-0.060
00:00:12.344	-0.220	-0.060
00:00:12.346	-0.245	-0.055
00:00:12.348	-0.285	-0.050
00:00:12.350	-0.455	-0.040
00:00:12.352	-0.435	-0.035
00:00:12.354	-0.410	-0.030
00:00:12.356	-0.350	-0.030
00:00:12.358	-0.285	-0.030
00:00:12.360	-0.215	-0.035
00:00:12.362	-0.195	-0.040
00:00:12.364	-0.175	-0.040
00:00:12.366	-0.260	-0.040
00:00:12.368	-0.260	-0.035
00:00:12.370	-0.425	-0.030
00:00:12.372	-0.450	-0.025
00:00:12.374	-0.370	-0.025
00:00:12.376	-0.265	-0.025
00:00:12.378	-0.245	-0.035
00:00:12.380	-0.190	-0.045
00:00:12.382	-0.245	-0.055
00:00:12.384	-0.305	-0.065
00:00:12.386	-0.360	-0.065
00:00:12.388	-0.350	-0.065
00:00:12.390	-0.350	-0.055
00:00:12.392	-0.315	-0.040
00:00:12.394	-0.340	-0.025
00:00:12.396	-0.295	-0.015
00:00:12.398	-0.310	-0.005
00:00:12.400	-0.170	0.000
00:00:12.402	-0.130	0.000
00:00:12.404	-0.125	-0.005
00:00:12.406	-0.265	-0.010
00:00:12.408	-0.310	-0.015
00:00:12.410	-0.385	-0.015
00:00:12.412	-0.370	-0.015
00:00:12.414	-0.380	-0.015
00:00:12.416	-0.295	-0.010
00:00:12.418	-0.195	-0.005
00:00:12.420	-0.125	-0.005
00:00:12.422	-0.150	-0.005
00:00:12.424	-0.155	-0.005
00:00:12.426	-0.265	-0.005
00:00:12.428	-0.345	0.000
00:00:12.430	-0.450	0.010
00:00:12.432	-0.350	0.020
00:00:12.434	-0.255	0.035
00:00:12.436	-0.235	0.050
00:00:12.438	-0.185	0.060
00:00:12.440	-0.050	0.065
00:00:12.442	-0.045	0.065
00:00:12.444	-0.085	0.055
00:00:12.446	-0.210	0.045
00:00:12.448	-0.280	0.035
00:00:12.450	-0.445	0.025
00:00:12.452	-0.330	0.020
00:00:12.454	-0.365	0.025
00:00:12.456	-0.195	0.030
00:00:12.458	-0.180	0.045
00:00:12.460	-0.035	0.060
00:00:12.462	-0.040	0.075
00:00:12.464	-0.145	0.085
00:00:12.466	-0.225	0.090
00:00:12.468	-0.200	0.085
00:00:12.470	-0.305	0.080
00:00:12.472	-0.335	0.070
00:00:12.474	-0.280	0.060
00:00:12.476	-0.200	0.060
00:00:12.478	-0.180	0.060
00:00:12.480	-0.080	0.070
00:00:12.482	-0.025	0.085
00:00:12.484	-0.030	0.110
00:00:12.486	-0.060	0.130
00:00:12.488	-0.160	0.150
00:00:12.490	-0.260	0.165
00:00:12.492	-0.265	0.180
00:00:12.494	-0.095	0.190
00:00:12.496	-0.035	0.195
00:00:12.498	-0.090	0.200
00:00:12.500	0.065	0.205
00:00:12.502	0.075	0.210
00:00:12.504	0.035	0.210
00:00:12.506	-0.060	0.215
00:00:12.508	-0.070	0.215
00:00:12.510	-0.170	0.215
00:00:12.512	-0.200	0.210
00:00:12.514	-0.155	0.205
00:00:12.516	-0.045	0.200
00:00:12.518	-0.035	0.195
00:00:12.520	0.065	0.190
00:00:12.522	0.130	0.185
00:00:12.524	0.005	0.190
00:00:12.526	-0.065	0.195
00:00:12.528	-0.080	0.200
00:00:12.530	-0.230	0.205
00:00:12.532	-0.195	0.215
00:00:12.534	-0.100	0.220
00:00:12.536	-0.025	0.220
00:00:12.538	-0.010	0.215
00:00:12.540	0.055	0.205
00:00:12.542	0.065	0.190
00:00:12.544	-0.005	0.170
00:00:12.546	-0.120	0.150
00:00:12.548	-0.175	0.125
00:00:12.550	-0.360	0.100
00:00:12.552	-0.345	0.075
00:00:12.554	-0.245	0.055
00:00:12.556	-0.115	0.030
00:00:12.558	-0.180	0.015
00:00:12.560	-0.140	0.000
00:00:12.562	-0.160	-0.010
00:00:12.564	-0.230	-0.015
00:00:12.566	-0.275	-0.015
00:00:12.568	-0.345	-0.015
00:00:12.570	-0.420	-0.015
00:00:12.572	-0.415	-0.015
00:00:12.574	-0.360	-0.020
00:00:12.576	-0.250	-0.025
00:00:12.578	-0.195	-0.030
00:00:12.580	-0.135	-0.040
00:00:12.582	-0.205	-0.045
00:00:12.584	-0.290	-0.050
00:00:12.586	-0.350	-0.045
00:00:12.588	-0.380	-0.040
00:00:12.590	-0.405	-0.035
00:00:12.592	-0.360	-0.025
00:00:12.594	-0.325	-0.020
00:00:12.596	-0.270	-0.020
00:00:12.598	-0.205	-0.025
00:00:12.600	-0.195	-0.030
00:00:12.602	-0.230	-0.045
00:00:12.604	-0.300	-0.055
00:00:12.606	-0.350	-0.065
00:00:12.608	-0.455	-0.070
00:00:12.610	-0.440	-0.070
00:00:12.612	-0.435	-0.065
00:00:12.614	-0.330	-0.055
00:00:12.616	-0.295	-0.045
00:00:12.618	-0.170	-0.040
00:00:12.620	-0.140	-0.040
00:00:12.622	-0.225	-0.045
00:00:12.624	-0.330	-0.055
00:00:12.626	-0.410	-0.070
00:00:12.628	-0.440	-0.085
00:00:12.630	-0.480	-0.100
00:00:12.632	-0.520	-0.100
00:00:12.634	-0.425	-0.095
00:00:12.636	-0.345	-0.080
00:00:12.638	-0.145	-0.060
00:00:12.640	-0.155	-0.040
00:00:12.642	-0.170	-0.025
00:00:12.644	-0.245	-0.015
00:00:12.646	-0.345	-0.010
00:00:12.648	-0.420	-0.020
00:00:12.650	-0.485	-0.040
00:00:12.652	-0.490	-0.060
00:00:12.654	-0.445	-0.080
00:00:12.656	-0.285	-0.090
00:00:12.658	-0.150	-0.100
00:00:12.660	-0.240	-0.095
00:00:12.662	-0.235	-0.085
00:00:12.664	-0.270	-0.075
00:00:12.666	-0.345	-0.060
00:00:12.668	-0.400	-0.050
00:00:12.670	-0.460	-0.045
00:00:12.672	-0.430	-0.045
00:00:12.674	-0.395	-0.050
00:00:12.676	-0.345	-0.055
00:00:12.678	-0.215	-0.065
00:00:12.680	-0.220	-0.070
00:00:12.682	-0.260	-0.070
00:00:12.684	-0.275	-0.065
00:00:12.686	-0.250	-0.060
00:00:12.688	-0.405	-0.055
00:00:12.690	-0.440	-0.050
00:00:12.692	-0.530	-0.045
00:00:12.694	-0.385	-0.050
00:00:12.696	-0.250	-0.055
00:00:12.698	-0.245	-0.060
00:00:12.700	-0.210	-0.065
00:00:12.702	-0.195	-0.070
00:00:12.704	-0.340	-0.070
00:00:12.706	-0.340	-0.065
00:00:12.708	-0.405	-0.060
00:00:12.710	-0.470	-0.045
00:00:12.712	-0.380	-0.035
00:00:12.714	-0.370	-0.030
00:00:12.716	-0.335	-0.025
00:00:12.718	-0.170	-0.025
00:00:12.720	-0.165	-0.025
00:00:12.722	-0.220	-0.030
00:00:12.724	-0.265	-0.035
00:00:12.726	-0.260	-0.040
00:00:12.728	-0.440	-0.040
00:00:12.730	-0.480	-0.040
00:00:12.732	-0.405	-0.035
00:00:12.734	-0.330	-0.035
00:00:12.736	-0.320	-0.035
00:00:12.738	-0.165	-0.035
00:00:12.740	-0.120	-0.045
00:00:12.742	-0.205	-0.055
00:00:12.744	-0.395	-0.065
00:00:12.746	-0.385	-0.075
00:00:12.748	-0.455	-0.080
00:00:12.750	-0.465	-0.080
00:00:12.752	-0.480	-0.080
00:00:12.754	-0.415	-0.070
00:00:12.756	-0.320	-0.055
00:00:12.758	-0.095	-0.040
00:00:12.760	-0.155	-0.030
00:00:12.762	-0.170	-0.015
00:00:12.764	-0.245	-0.010
00:00:12.766	-0.305	-0.010
00:00:12.768	-0.465	-0.010
00:00:12.770	-0.475	-0.015
00:00:12.772	-0.400	-0.025
00:00:12.774	-0.335	-0.035
00:00:12.776	-0.265	-0.045
00:00:12.778	-0.145	-0.055
00:00:12.780	-0.200	-0.060
00:00:12.782	-0.305	-0.060
00:00:12.784	-0.335	-0.060
00:00:12.786	-0.355	-0.060
00:00:12.788	-0.495	-0.055
00:00:12.790	-0.465	-0.050
00:00:12.792	-0.385	-0.045
00:00:12.794	-0.265	-0.040
00:00:12.796	-0.285	-0.040
00:00:12.798	-0.205	-0.040
00:00:12.800	-0.100	-0.040
00:00:12.802	-0.215	-0.040
00:00:12.804	-0.375	-0.040
00:00:12.806	-0.475	-0.040
00:00:12.808	-0.495	-0.040
00:00:12.810	-0.425	-0.040
00:00:12.812	-0.375	-0.040
00:00:12.814	-0.295	-0.045
00:00:12.816	-0.260	-0.045
00:00:12.818	-0.225	-0.050
00:00:12.820	-0.230	-0.055
00:00:12.822	-0.250	-0.055
00:00:12.824	-0.365	-0.060
00:00:12.826	-0.405	-0.055
00:00:12.828	-0.470	-0.050
00:00:12.830	-0.425	-0.045
00:00:12.832	-0.405	-0.035
00:00:12.834	-0.290	-0.025
00:00:12.836	-0.245	-0.020
00:00:12.838	-0.160	-0.015
00:00:12.840	-0.185	-0.015
00:00:12.842	-0.240	-0.015
00:00:12.844	-0.365	-0.020
00:00:12.846	-0.390	-0.025
00:00:12.848	-0.420	-0.035
00:00:12.850	-0.435	-0.040
00:00:12.852	-0.405	-0.045
00:00:12.854	-0.280	-0.045
00:00:12.856	-0.295	-0.045
00:00:12.858	-0.180	-0.045
00:00:12.860	-0.240	-0.040
00:00:12.862	-0.280	-0.040
00:00:12.864	-0.340	-0.035
00:00:12.866	-0.405	-0.030
00:00:12.868	-0.475	-0.030
00:00:12.870	-0.415	-0.025
00:00:12.872	-0.360	-0.025
00:00:12.874	-0.285	-0.025
00:00:12.876	-0.255	-0.025
00:00:12.878	-0.165	-0.030
00:00:12.880	-0.190	-0.035
00:00:12.882	-0.315	-0.040
00:00:12.884	-0.370	-0.040
00:00:12.886	-0.410	-0.045
00:00:12.888	-0.460	-0.045
00:00:12.890	-0.490	-0.045
00:00:12.892	-0.360	-0.040
00:00:12.894	-0.260	-0.035
00:00:12.896	-0.245	-0.030
00:00:12.898	-0.185	-0.020
00:00:12.900	-0.145	-0.015
00:00:12.902	-0.230	-0.015
00:00:12.904	-0.345	-0.015
00:00:12.906	-0.475	-0.020
00:00:12.908	-0.520	-0.025
00:00:12.910	-0.475	-0.030
00:00:12.912	-0.340	-0.035
00:00:12.914	-0.280	-0.040
00:00:12.916	-0.180	-0.045
00:00:12.918	-0.140	-0.040
00:00:12.920	-0.250	-0.035
00:00:12.922	-0.290	-0.025
00:00:12.924	-0.395	-0.020
00:00:12.926	-0.480	-0.010
00:00:12.928	-0.430	-0.010
00:00:12.930	-0.430	-0.010
00:00:12.932	-0.375	-0.020
00:00:12.934	-0.280	-0.030
00:00:12.936	-0.240	-0.040
00:00:12.938	-0.150	-0.050
00:00:12.940	-0.270	-0.055
00:00:12.942	-0.340	-0.050
00:00:12.944	-0.385	-0.040
00:00:12.946	-0.450	-0.025
00:00:12.948	-0.380	-0.005
00:00:12.950	-0.380	0.010
00:00:12.952	-0.330	0.020
00:00:12.954	-0.265	0.020
00:00:12.956	-0.155	0.010
00:00:12.958	-0.230	0.000
00:00:12.960	-0.245	-0.020
00:00:12.962	-0.255	-0.040
00:00:12.964	-0.365	-0.050
00:00:12.966	-0.515	-0.055
00:00:12.968	-0.485	-0.050
00:00:12.970	-0.415	-0.035
00:00:12.972	-0.365	-0.020
00:00:12.974	-0.290	-0.005
00:00:12.976	-0.125	0.010
00:00:12.978	-0.155	0.015
00:00:12.980	-0.165	0.010
00:00:12.982	-0.240	0.005
00:00:12.984	-0.285	-0.010
00:00:12.986	-0.525	-0.025
00:00:12.988	-0.585	-0.035
00:00:12.990	-0.445	-0.035
00:00:12.992	-0.345	-0.035
00:00:12.994	-0.265	-0.030
00:00:12.996	-0.135	-0.020
00:00:12.998	-0.165	-0.015
00:00:13.000	-0.235	-0.010
00:00:13.002	-0.330	-0.015
00:00:13.004	-0.365	-0.020
00:00:13.006	-0.540	-0.030
00:00:13.008	-0.515	-0.040
00:00:13.010	-0.465	-0.045
00:00:13.012	-0.270	-0.045
00:00:13.014	-0.295	-0.040
00:00:13.016	-0.180	-0.025
00:00:13.018	-0.160	-0.010
00:00:13.020	-0.200	0.005
00:00:13.022	-0.285	0.020
00:00:13.024	-0.305	0.030
00:00:13.026	-0.460	0.030
00:00:13.028	-0.400	0.025
00:00:13.030	-0.365	0.010
00:00:13.032	-0.345	0.000
00:00:13.034	-0.365	-0.010
00:00:13.036	-0.190	-0.010
00:00:13.038	-0.145	0.000
00:00:13.040	-0.175	0.015
00:00:13.042	-0.190	0.035
00:00:13.044	-0.310	0.055
00:00:13.046	-0.455	0.070
00:00:13.048	-0.340	0.085
00:00:13.050	-0.315	0.085
00:00:13.052	-0.300	0.075
00:00:13.054	-0.245	0.055
00:00:13.056	-0.125	0.035
00:00:13.058	-0.150	0.015
00:00:13.060	-0.250	-0.005
00:00:13.062	-0.300	-0.015
00:00:13.064	-0.325	-0.015
00:00:13.066	-0.465	-0.015
00:00:13.068	-0.425	-0.005
00:00:13.070	-0.415	0.005
00:00:13.072	-0.365	0.010
00:00:13.074	-0.315	0.015
00:00:13.076	-0.225	0.015
00:00:13.078	-0.180	0.010
00:00:13.080	-0.205	0.005
00:00:13.082	-0.240	0.000
00:00:13.084	-0.340	-0.005
00:00:13.086	-0.455	-0.010
00:00:13.088	-0.460	-0.010
00:00:13.090	-0.400	-0.010
00:00:13.092	-0.365	-0.015
00:00:13.094	-0.385	-0.020
00:00:13.096	-0.155	-0.025
00:00:13.098	-0.250	-0.030
00:00:13.100	-0.300	-0.035
00:00:13.102	-0.375	-0.040
00:00:13.104	-0.345	-0.040
00:00:13.106	-0.460	-0.035
00:00:13.108	-0.530	-0.030
00:00:13.110	-0.435	-0.020
00:00:13.112	-0.280	-0.010
00:00:13.114	-0.275	-0.005
00:00:13.116	-0.230	-0.005
00:00:13.118	-0.250	-0.005
00:00:13.120	-0.285	-0.005
00:00:13.122	-0.330	-0.010
00:00:13.124	-0.320	-0.010
00:00:13.126	-0.440	-0.005
00:00:13.128	-0.430	0.000
00:00:13.130	-0.355	0.005
00:00:13.132	-0.270	0.015
00:00:13.134	-0.280	0.025
00:00:13.136	-0.150	0.035
00:00:13.138	-0.155	0.045
00:00:13.140	-0.230	0.055
00:00:13.142	-0.320	0.060
00:00:13.144	-0.355	0.065
00:00:13.146	-0.410	0.080
00:00:13.148	-0.325	0.095
00:00:13.150	-0.220	0.120
00:00:13.152	-0.055	0.150
00:00:13.154	-0.060	0.185
00:00:13.156	0.015	0.220
00:00:13.158	0.075	0.255
00:00:13.160	0.025	0.280
00:00:13.162	-0.055	0.295
00:00:13.164	-0.165	0.295
00:00:13.166	-0.220	0.270
00:00:13.168	-0.200	0.230
00:00:13.170	-0.160	0.175
00:00:13.172	-0.190	0.110
00:00:13.174	-0.190	0.040
00:00:13.176	-0.205	-0.025
00:00:13.178	-0.330	-0.080
00:00:13.180	-0.500	-0.125
00:00:13.182	-0.605	-0.150
00:00:13.184	-0.615	-0.155
00:00:13.186	-0.570	-0.145
00:00:13.188	-0.540	-0.125
00:00:13.190	-0.425	-0.105
00:00:13.192	-0.300	-0.080
00:00:13.194	-0.245	-0.065
00:00:13.196	-0.220	-0.050
00:00:13.198	-0.285	-0.045
00:00:13.200	-0.425	-0.050
00:00:13.202	-0.455	-0.050
00:00:13.204	-0.515	-0.055
00:00:13.206	-0.475	-0.060
00:00:13.208	-0.475	-0.055
00:00:13.210	-0.380	-0.055
00:00:13.212	-0.360	-0.045
00:00:13.214	-0.205	-0.040
00:00:13.216	-0.230	-0.040
00:00:13.218	-0.280	-0.040
00:00:13.220	-0.370	-0.045
00:00:13.222	-0.485	-0.055
00:00:13.224	-0.545	-0.065
00:00:13.226	-0.605	-0.075
00:00:13.228	-0.580	-0.085
00:00:13.230	-0.425	-0.090
00:00:13.232	-0.340	-0.090
00:00:13.234	-0.280	-0.085
00:00:13.236	-0.240	-0.075
00:00:13.238	-0.270	-0.065
00:00:13.240	-0.350	-0.055
00:00:13.242	-0.425	-0.045
00:00:13.244	-0.495	-0.035
00:00:13.246	-0.490	-0.030
00:00:13.248	-0.480	-0.030
00:00:13.250	-0.325	-0.030
00:00:13.252	-0.370	-0.035
00:00:13.254	-0.260	-0.040
00:00:13.256	-0.245	-0.045
00:00:13.258	-0.320	-0.045
00:00:13.260	-0.370	-0.040
00:00:13.262	-0.390	-0.035
00:00:13.264	-0.525	-0.030
00:00:13.266	-0.460	-0.020
00:00:13.268	-0.360	-0.010
00:00:13.270	-0.365	-0.005
00:00:13.272	-0.325	-0.005
00:00:13.274	-0.240	-0.005
00:00:13.276	-0.280	-0.010
00:00:13.278	-0.260	-0.020
00:00:13.280	-0.355	-0.025
00:00:13.282	-0.405	-0.030
00:00:13.284	-0.505	-0.030
00:00:13.286	-0.445	-0.030
00:00:13.288	-0.440	-0.025
00:00:13.290	-0.400	-0.020
00:00:13.292	-0.330	-0.015
00:00:13.294	-0.260	-0.010
00:00:13.296	-0.235	-0.010
00:00:13.298	-0.215	-0.015
00:00:13.300	-0.330	-0.020
00:00:13.302	-0.360	-0.020
00:00:13.304	-0.460	-0.020
00:00:13.306	-0.480	-0.020
00:00:13.308	-0.455	-0.010
00:00:13.310	-0.395	-0.005
00:00:13.312	-0.370	0.005
00:00:13.314	-0.180	0.010
00:00:13.316	-0.215	0.015
00:00:13.318	-0.155	0.015
00:00:13.320	-0.305	0.015
00:00:13.322	-0.340	0.010
00:00:13.324	-0.515	0.010
00:00:13.326	-0.510	0.010
00:00:13.328	-0.410	0.015
00:00:13.330	-0.295	0.025
00:00:13.332	-0.215	0.035
00:00:13.334	-0.170	0.045
00:00:13.336	-0.140	0.050
00:00:13.338	-0.235	0.050
00:00:13.340	-0.315	0.045
00:00:13.342	-0.315	0.035
00:00:13.344	-0.465	0.025
00:00:13.346	-0.460	0.020
00:00:13.348	-0.410	0.020
00:00:13.350	-0.325	0.030
00:00:13.352	-0.225	0.050
00:00:13.354	-0.070	0.075
00:00:13.356	-0.075	0.100
00:00:13.358	-0.150	0.130
00:00:13.360	-0.250	0.145
00:00:13.362	-0.245	0.155
00:00:13.364	-0.365	0.160
00:00:13.366	-0.375	0.150
00:00:13.368	-0.290	0.140
00:00:13.370	-0.175	0.125
00:00:13.372	-0.130	0.120
00:00:13.374	-0.075	0.115
00:00:13.376	-0.135	0.120
00:00:13.378	-0.130	0.135
00:00:13.380	-0.180	0.155
00:00:13.382	-0.215	0.170
00:00:13.384	-0.315	0.190
00:00:13.386	-0.265	0.205
00:00:13.388	-0.255	0.215
00:00:13.390	-0.170	0.220
00:00:13.392	-0.145	0.220
00:00:13.394	0.070	0.220
00:00:13.396	0.040	0.220
00:00:13.398	-0.010	0.215
00:00:13.400	-0.130	0.215
00:00:13.402	-0.250	0.205
00:00:13.404	-0.380	0.200
00:00:13.406	-0.310	0.195
00:00:13.408	-0.215	0.190
00:00:13.410	-0.170	0.185
00:00:13.412	-0.075	0.190
00:00:13.414	0.035	0.195
00:00:13.416	0.030	0.210
00:00:13.418	-0.060	0.225
00:00:13.420	-0.205	0.235
00:00:13.422	-0.215	0.245
00:00:13.424	-0.275	0.250
00:00:13.426	-0.290	0.240
00:00:13.428	-0.165	0.225
00:00:13.430	-0.105	0.200
00:00:13.432	-0.105	0.170
00:00:13.434	-0.075	0.140
00:00:13.436	-0.085	0.115
00:00:13.438	-0.210	0.095
00:00:13.440	-0.305	0.085
00:00:13.442	-0.380	0.080
00:00:13.444	-0.435	0.080
00:00:13.446	-0.375	0.080
00:00:13.448	-0.325	0.080
00:00:13.450	-0.290	0.075
00:00:13.452	-0.255	0.070
00:00:13.454	-0.120	0.055
00:00:13.456	-0.175	0.040
00:00:13.458	-0.305	0.030
00:00:13.460	-0.400	0.015
00:00:13.462	-0.435	0.010
00:00:13.464	-0.500	0.000
00:00:13.466	-0.460	0.000
00:00:13.468	-0.440	-0.005
00:00:13.470	-0.355	-0.010
00:00:13.472	-0.300	-0.010
00:00:13.474	-0.240	-0.015
00:00:13.476	-0.230	-0.015
00:00:13.478	-0.305	-0.015
00:00:13.480	-0.355	-0.015
00:00:13.482	-0.500	-0.015
00:00:13.484	-0.510	-0.015
00:00:13.486	-0.520	-0.020
00:00:13.488	-0.480	-0.025
00:00:13.490	-0.325	-0.035
00:00:13.492	-0.315	-0.050
00:00:13.494	-0.330	-0.065
00:00:13.496	-0.320	-0.075
00:00:13.498	-0.380	-0.085
00:00:13.500	-0.470	-0.085
00:00:13.502	-0.610	-0.075
00:00:13.504	-0.565	-0.065
00:00:13.506	-0.480	-0.050
00:00:13.508	-0.390	-0.040
00:00:13.510	-0.380	-0.030
00:00:13.512	-0.250	-0.030
00:00:13.514	-0.250	-0.030
00:00:13.516	-0.335	-0.040
00:00:13.518	-0.425	-0.050
00:00:13.520	-0.405	-0.060
00:00:13.522	-0.580	-0.065
00:00:13.524	-0.580	-0.065
00:00:13.526	-0.525	-0.055
00:00:13.528	-0.385	-0.040
00:00:13.530	-0.330	-0.025
00:00:13.532	-0.195	-0.015
00:00:13.534	-0.195	-0.010
00:00:13.536	-0.305	-0.005
00:00:13.538	-0.425	-0.010
00:00:13.540	-0.475	-0.025
00:00:13.542	-0.530	-0.035
00:00:13.544	-0.560	-0.050
00:00:13.546	-0.560	-0.060
00:00:13.548	-0.495	-0.060
00:00:13.550	-0.295	-0.060
00:00:13.552	-0.220	-0.055
00:00:13.554	-0.215	-0.045
00:00:13.556	-0.350	-0.030
00:00:13.558	-0.400	-0.020
00:00:13.560	-0.435	-0.010
00:00:13.562	-0.475	-0.005
00:00:13.564	-0.500	-0.005
00:00:13.566	-0.485	-0.010
00:00:13.568	-0.330	-0.015
00:00:13.570	-0.355	-0.025
00:00:13.572	-0.265	-0.035
00:00:13.574	-0.325	-0.045
00:00:13.576	-0.290	-0.050
00:00:13.578	-0.355	-0.050
00:00:13.580	-0.415	-0.045
00:00:13.582	-0.550	-0.040
00:00:13.584	-0.535	-0.030
00:00:13.586	-0.445	-0.020
00:00:13.588	-0.405	-0.015
00:00:13.590	-0.355	-0.010
00:00:13.592	-0.235	-0.010
00:00:13.594	-0.240	-0.010
00:00:13.596	-0.335	-0.010
00:00:13.598	-0.350	-0.015
00:00:13.600	-0.385	-0.020
00:00:13.602	-0.500	-0.020
00:00:13.604	-0.520	-0.020
00:00:13.606	-0.455	-0.020
00:00:13.608	-0.375	-0.020
00:00:13.610	-0.355	-0.020
00:00:13.612	-0.260	-0.025
00:00:13.614	-0.300	-0.025
00:00:13.616	-0.300	-0.030
00:00:13.618	-0.365	-0.035
00:00:13.620	-0.440	-0.035
00:00:13.622	-0.535	-0.030
00:00:13.624	-0.550	-0.025
00:00:13.626	-0.520	-0.020
00:00:13.628	-0.360	-0.015
00:00:13.630	-0.315	-0.010
00:00:13.632	-0.215	-0.005
00:00:13.634	-0.225	-0.010
00:00:13.636	-0.260	-0.010
00:00:13.638	-0.370	-0.015
00:00:13.640	-0.420	-0.020
00:00:13.642	-0.580	-0.025
00:00:13.644	-0.545	-0.025
00:00:13.646	-0.405	-0.025
00:00:13.648	-0.385	-0.020
00:00:13.650	-0.385	-0.020
00:00:13.652	-0.250	-0.020
00:00:13.654	-0.225	-0.025
00:00:13.656	-0.245	-0.030
00:00:13.658	-0.375	-0.035
00:00:13.660	-0.425	-0.045
00:00:13.662	-0.575	-0.050
00:00:13.664	-0.565	-0.050
00:00:13.666	-0.495	-0.050
00:00:13.668	-0.445	-0.050
00:00:13.670	-0.400	-0.040
00:00:13.672	-0.270	-0.035
00:00:13.674	-0.190	-0.030
00:00:13.676	-0.280	-0.025
00:00:13.678	-0.360	-0.025
00:00:13.680	-0.395	-0.025
00:00:13.682	-0.590	-0.030
00:00:13.684	-0.605	-0.035
00:00:13.686	-0.480	-0.035
00:00:13.688	-0.330	-0.040
00:00:13.690	-0.290	-0.040
