00:00:05.000	-0.705	-0.025
00:00:05.002	-0.660	-0.030
00:00:05.004	-0.585	-0.040
00:00:05.006	-0.445	-0.050
00:00:05.008	-0.530	-0.070
00:00:05.010	-0.655	-0.085
00:00:05.012	-0.765	-0.100
00:00:05.014	-0.765	-0.110
00:00:05.016	-0.855	-0.115
00:00:05.018	-0.800	-0.110
00:00:05.020	-0.750	-0.095
00:00:05.022	-0.670	-0.075
00:00:05.024	-0.590	-0.055
00:00:05.026	-0.530	-0.040
00:00:05.028	-0.410	-0.025
00:00:05.030	-0.550	-0.025
00:00:05.032	-0.585	-0.030
00:00:05.034	-0.635	-0.040
00:00:05.036	-0.850	-0.055
00:00:05.038	-0.835	-0.070
00:00:05.040	-0.785	-0.080
00:00:05.042	-0.620	-0.085
00:00:05.044	-0.595	-0.080
00:00:05.046	-0.515	-0.065
00:00:05.048	-0.490	-0.045
00:00:05.050	-0.555	-0.025
00:00:05.052	-0.585	-0.010
00:00:05.054	-0.630	0.000
00:00:05.056	-0.765	0.005
00:00:05.058	-0.770	-0.005
00:00:05.060	-0.715	-0.015
00:00:05.062	-0.550	-0.035
00:00:05.064	-0.585	-0.050
00:00:05.066	-0.510	-0.065
00:00:05.068	-0.495	-0.070
00:00:05.070	-0.540	-0.070
00:00:05.072	-0.705	-0.065
00:00:05.074	-0.745	-0.055
00:00:05.076	-0.750	-0.045
00:00:05.078	-0.715	-0.035
00:00:05.080	-0.710	-0.035
00:00:05.082	-0.680	-0.040
00:00:05.084	-0.580	-0.050
00:00:05.086	-0.515	-0.060
00:00:05.088	-0.480	-0.075
00:00:05.090	-0.600	-0.085
00:00:05.092	-0.690	-0.090
00:00:05.094	-0.740	-0.090
00:00:05.096	-0.855	-0.085
00:00:05.098	-0.805	-0.070
00:00:05.100	-0.760	-0.060
00:00:05.102	-0.695	-0.045
00:00:05.104	-0.675	-0.030
00:00:05.106	-0.375	-0.025
00:00:05.108	-0.355	-0.025
00:00:05.110	-0.595	-0.025
00:00:05.112	-0.660	-0.030
00:00:05.114	-0.630	-0.040
00:00:05.116	-0.795	-0.045
00:00:05.118	-0.850	-0.050
00:00:05.120	-0.685	-0.050
00:00:05.122	-0.700	-0.050
00:00:05.124	-0.625	-0.040
00:00:05.126	-0.440	-0.030
00:00:05.128	-0.420	-0.015
00:00:05.130	-0.550	0.000
00:00:05.132	-0.650	0.015
00:00:05.134	-0.630	0.020
00:00:05.136	-0.700	0.025
00:00:05.138	-0.655	0.020
00:00:05.140	-0.605	0.010
00:00:05.142	-0.575	-0.005
00:00:05.144	-0.585	-0.020
00:00:05.146	-0.500	-0.035
00:00:05.148	-0.565	-0.045
00:00:05.150	-0.575	-0.050
00:00:05.152	-0.635	-0.050
00:00:05.154	-0.660	-0.040
00:00:05.156	-0.740	-0.025
00:00:05.158	-0.715	-0.010
00:00:05.160	-0.600	0.005
00:00:05.162	-0.515	0.010
00:00:05.164	-0.530	0.010
00:00:05.166	-0.485	0.005
00:00:05.168	-0.475	-0.010
00:00:05.170	-0.565	-0.030
00:00:05.172	-0.665	-0.050
00:00:05.174	-0.805	-0.070
00:00:05.176	-0.770	-0.085
00:00:05.178	-0.775	-0.095
00:00:05.180	-0.800	-0.095
00:00:05.182	-0.730	-0.090
00:00:05.184	-0.610	-0.080
00:00:05.186	-0.490	-0.070
00:00:05.188	-0.505	-0.055
00:00:05.190	-0.570	-0.045
00:00:05.192	-0.605	-0.035
00:00:05.194	-0.730	-0.030
00:00:05.196	-0.755	-0.025
00:00:05.198	-0.775	-0.025
00:00:05.200	-0.630	-0.030
00:00:05.202	-0.610	-0.040
00:00:05.204	-0.570	-0.045
00:00:05.206	-0.480	-0.055
00:00:05.208	-0.580	-0.065
00:00:05.210	-0.695	-0.070
00:00:05.212	-0.690	-0.075
00:00:05.214	-0.690	-0.080
00:00:05.216	-0.720	-0.080
00:00:05.218	-0.670	-0.075
00:00:05.220	-0.740	-0.065
00:00:05.222	-0.670	-0.055
00:00:05.224	-0.565	-0.045
00:00:05.226	-0.485	-0.035
00:00:05.228	-0.505	-0.025
00:00:05.230	-0.570	-0.020
00:00:05.232	-0.700	-0.020
00:00:05.234	-0.690	-0.025
00:00:05.236	-0.695	-0.035
00:00:05.238	-0.710	-0.050
00:00:05.240	-0.705	-0.060
00:00:05.242	-0.650	-0.065
00:00:05.244	-0.580	-0.060
00:00:05.246	-0.525	-0.040
00:00:05.248	-0.550	-0.010
00:00:05.250	-0.530	0.040
00:00:05.252	-0.535	0.095
00:00:05.254	-0.430	0.150
00:00:05.256	-0.365	0.210
00:00:05.258	-0.410	0.260
00:00:05.260	-0.355	0.300
00:00:05.262	-0.225	0.320
00:00:05.264	-0.195	0.330
00:00:05.266	-0.165	0.320
00:00:05.268	-0.155	0.300
00:00:05.270	-0.260	0.270
00:00:05.272	-0.380	0.230
00:00:05.274	-0.545	0.185
00:00:05.276	-0.540	0.140
00:00:05.278	-0.535	0.095
00:00:05.280	-0.575	0.055
00:00:05.282	-0.605	0.020
00:00:05.284	-0.610	-0.010
00:00:05.286	-0.520	-0.030
00:00:05.288	-0.520	-0.040
00:00:05.290	-0.625	-0.045
00:00:05.292	-0.710	-0.040
00:00:05.294	-0.645	-0.035
00:00:05.296	-0.610	-0.030
00:00:05.298	-0.695	-0.030
00:00:05.300	-0.715	-0.030
00:00:05.302	-0.590	-0.040
00:00:05.304	-0.635	-0.055
00:00:05.306	-0.605	-0.075
00:00:05.308	-0.580	-0.090
00:00:05.310	-0.635	-0.105
00:00:05.312	-0.715	-0.110
00:00:05.314	-0.750	-0.105
00:00:05.316	-0.750	-0.095
00:00:05.318	-0.770	-0.080
00:00:05.320	-0.700	-0.060
00:00:05.322	-0.595	-0.045
00:00:05.324	-0.490	-0.030
00:00:05.326	-0.445	-0.025
00:00:05.328	-0.530	-0.025
00:00:05.330	-0.610	-0.025
00:00:05.332	-0.625	-0.030
00:00:05.334	-0.730	-0.035
00:00:05.336	-0.750	-0.045
00:00:05.338	-0.750	-0.045
00:00:05.340	-0.665	-0.050
00:00:05.342	-0.565	-0.050
00:00:05.344	-0.500	-0.050
00:00:05.346	-0.525	-0.050
00:00:05.348	-0.515	-0.050
00:00:05.350	-0.655	-0.050
00:00:05.352	-0.670	-0.045
00:00:05.354	-0.770	-0.045
00:00:05.356	-0.675	-0.045
00:00:05.358	-0.745	-0.040
00:00:05.360	-0.675	-0.035
00:00:05.362	-0.600	-0.025
00:00:05.364	-0.415	-0.015
00:00:05.366	-0.435	-0.010
00:00:05.368	-0.530	0.000
00:00:05.370	-0.575	0.010
00:00:05.372	-0.600	0.015
00:00:05.374	-0.665	0.020
00:00:05.376	-0.700	0.020
00:00:05.378	-0.660	0.020
00:00:05.380	-0.605	0.015
00:00:05.382	-0.555	0.005
00:00:05.384	-0.405	-0.005
00:00:05.386	-0.490	-0.015
00:00:05.388	-0.555	-0.025
00:00:05.390	-0.610	-0.035
00:00:05.392	-0.620	-0.040
00:00:05.394	-0.780	-0.045
00:00:05.396	-0.740	-0.040
00:00:05.398	-0.655	-0.035
00:00:05.400	-0.575	-0.020
00:00:05.402	-0.575	-0.005
00:00:05.404	-0.430	0.010
00:00:05.406	-0.440	0.020
00:00:05.408	-0.440	0.030
00:00:05.410	-0.570	0.035
00:00:05.412	-0.645	0.035
00:00:05.414	-0.735	0.030
00:00:05.416	-0.660	0.020
00:00:05.418	-0.620	0.010
00:00:05.420	-0.570	-0.005
00:00:05.422	-0.500	-0.015
00:00:05.424	-0.450	-0.025
00:00:05.426	-0.550	-0.030
00:00:05.428	-0.550	-0.030
00:00:05.430	-0.545	-0.020
00:00:05.432	-0.610	-0.010
00:00:05.434	-0.715	0.005
00:00:05.436	-0.700	0.020
00:00:05.438	-0.610	0.035
00:00:05.440	-0.510	0.050
00:00:05.442	-0.460	0.060
00:00:05.444	-0.275	0.070
00:00:05.446	-0.405	0.070
00:00:05.448	-0.530	0.070
00:00:05.450	-0.550	0.065
00:00:05.452	-0.555	0.065
00:00:05.454	-0.610	0.065
00:00:05.456	-0.660	0.070
00:00:05.458	-0.545	0.080
00:00:05.460	-0.420	0.090
00:00:05.462	-0.430	0.105
00:00:05.464	-0.400	0.120
00:00:05.466	-0.300	0.135
00:00:05.468	-0.290	0.140
00:00:05.470	-0.475	0.145
00:00:05.472	-0.565	0.150
00:00:05.474	-0.525	0.150
00:00:05.476	-0.530	0.145
00:00:05.478	-0.515	0.145
00:00:05.480	-0.440	0.145
00:00:05.482	-0.370	0.145
00:00:05.484	-0.285	0.150
00:00:05.486	-0.230	0.160
00:00:05.488	-0.375	0.170
00:00:05.490	-0.465	0.180
00:00:05.492	-0.485	0.185
00:00:05.494	-0.450	0.190
00:00:05.496	-0.440	0.195
00:00:05.498	-0.325	0.195
00:00:05.500	-0.420	0.190
00:00:05.502	-0.425	0.185
00:00:05.504	-0.285	0.180
00:00:05.506	-0.255	0.180
00:00:05.508	-0.320	0.180
00:00:05.510	-0.440	0.180
00:00:05.512	-0.455	0.185
00:00:05.514	-0.470	0.195
00:00:05.516	-0.495	0.205
00:00:05.518	-0.390	0.215
00:00:05.520	-0.295	0.225
00:00:05.522	-0.290	0.230
00:00:05.524	-0.225	0.235
00:00:05.526	-0.230	0.235
00:00:05.528	-0.240	0.235
00:00:05.530	-0.330	0.225
00:00:05.532	-0.435	0.215
00:00:05.534	-0.510	0.205
00:00:05.536	-0.605	0.190
00:00:05.538	-0.505	0.180
00:00:05.540	-0.360	0.170
00:00:05.542	-0.255	0.165
00:00:05.544	-0.235	0.160
00:00:05.546	-0.240	0.165
00:00:05.548	-0.375	0.165
00:00:05.550	-0.455	0.170
00:00:05.552	-0.495	0.175
00:00:05.554	-0.500	0.175
00:00:05.556	-0.480	0.170
00:00:05.558	-0.405	0.160
00:00:05.560	-0.405	0.150
00:00:05.562	-0.385	0.130
00:00:05.564	-0.400	0.110
00:00:05.566	-0.370	0.090
00:00:05.568	-0.465	0.075
00:00:05.570	-0.525	0.060
00:00:05.572	-0.560	0.050
00:00:05.574	-0.640	0.045
00:00:05.576	-0.670	0.040
00:00:05.578	-0.580	0.040
00:00:05.580	-0.485	0.040
00:00:05.582	-0.450	0.035
00:00:05.584	-0.440	0.025
00:00:05.586	-0.475	0.010
00:00:05.588	-0.540	-0.010
00:00:05.590	-0.700	-0.035
00:00:05.592	-0.800	-0.055
00:00:05.594	-0.765	-0.075
00:00:05.596	-0.710	-0.085
00:00:05.598	-0.650	-0.080
00:00:05.600	-0.570	-0.065
00:00:05.602	-0.475	-0.045
00:00:05.604	-0.460	-0.015
00:00:05.606	-0.425	0.010
00:00:05.608	-0.480	0.035
00:00:05.610	-0.600	0.045
00:00:05.612	-0.645	0.045
00:00:05.614	-0.690	0.030
00:00:05.616	-0.630	0.010
00:00:05.618	-0.545	-0.015
00:00:05.620	-0.545	-0.040
00:00:05.622	-0.630	-0.060
00:00:05.624	-0.575	-0.070
00:00:05.626	-0.535	-0.070
00:00:05.628	-0.600	-0.065
00:00:05.630	-0.570	-0.055
00:00:05.632	-0.685	-0.045
00:00:05.634	-0.780	-0.040
00:00:05.636	-0.735	-0.045
00:00:05.638	-0.675	-0.055
00:00:05.640	-0.625	-0.070
00:00:05.642	-0.550	-0.085
00:00:05.644	-0.550	-0.090
00:00:05.646	-0.540	-0.085
00:00:05.648	-0.580	-0.075
00:00:05.650	-0.595	-0.050
00:00:05.652	-0.725	-0.025
00:00:05.654	-0.690	-0.005
00:00:05.656	-0.610	0.015
00:00:05.658	-0.555	0.020
00:00:05.660	-0.490	0.015
00:00:05.662	-0.515	0.000
00:00:05.664	-0.490	-0.020
00:00:05.666	-0.590	-0.040
00:00:05.668	-0.620	-0.055
00:00:05.670	-0.630	-0.060
00:00:05.672	-0.695	-0.050
00:00:05.674	-0.710	-0.035
00:00:05.676	-0.640	-0.015
00:00:05.678	-0.500	0.005
00:00:05.680	-0.475	0.020
00:00:05.682	-0.440	0.025
00:00:05.684	-0.465	0.025
00:00:05.686	-0.545	0.015
00:00:05.688	-0.630	0.005
00:00:05.690	-0.625	-0.005
00:00:05.692	-0.660	-0.020
00:00:05.694	-0.640	-0.025
00:00:05.696	-0.630	-0.025
00:00:05.698	-0.535	-0.025
00:00:05.700	-0.590	-0.025
00:00:05.702	-0.475	-0.030
00:00:05.704	-0.480	-0.035
00:00:05.706	-0.595	-0.040
00:00:05.708	-0.695	-0.055
00:00:05.710	-0.600	-0.065
00:00:05.712	-0.750	-0.070
00:00:05.714	-0.730	-0.070
00:00:05.716	-0.650	-0.065
00:00:05.718	-0.625	-0.050
00:00:05.720	-0.590	-0.035
00:00:05.722	-0.475	-0.020
00:00:05.724	-0.405	-0.010
00:00:05.726	-0.505	-0.005
00:00:05.728	-0.600	-0.005
00:00:05.730	-0.630	-0.015
00:00:05.732	-0.740	-0.030
00:00:05.734	-0.720	-0.045
00:00:05.736	-0.675	-0.055
00:00:05.738	-0.540	-0.060
00:00:05.740	-0.565	-0.055
00:00:05.742	-0.505	-0.045
00:00:05.744	-0.495	-0.030
00:00:05.746	-0.505	-0.015
00:00:05.748	-0.595	0.000
00:00:05.750	-0.595	0.015
00:00:05.752	-0.605	0.020
00:00:05.754	-0.540	0.020
00:00:05.756	-0.575	0.015
00:00:05.758	-0.615	0.005
00:00:05.760	-0.620	0.000
00:00:05.762	-0.530	-0.005
00:00:05.764	-0.390	-0.005
00:00:05.766	-0.490	-0.010
00:00:05.768	-0.585	-0.010
00:00:05.770	-0.515	-0.020
00:00:05.772	-0.715	-0.030
00:00:05.774	-0.750	-0.040
00:00:05.776	-0.705	-0.055
00:00:05.778	-0.675	-0.070
00:00:05.780	-0.640	-0.080
00:00:05.782	-0.510	-0.085
00:00:05.784	-0.495	-0.085
00:00:05.786	-0.545	-0.070
00:00:05.788	-0.665	-0.055
00:00:05.790	-0.630	-0.035
00:00:05.792	-0.620	-0.015
00:00:05.794	-0.680	-0.005
00:00:05.796	-0.670	0.000
00:00:05.798	-0.575	-0.005
00:00:05.800	-0.500	-0.015
00:00:05.802	-0.415	-0.035
00:00:05.804	-0.490	-0.055
00:00:05.806	-0.545	-0.070
00:00:05.808	-0.735	-0.080
00:00:05.810	-0.725	-0.080
00:00:05.812	-0.730	-0.075
00:00:05.814	-0.705	-0.060
00:00:05.816	-0.610	-0.050
00:00:05.818	-0.575	-0.040
00:00:05.820	-0.525	-0.030
00:00:05.822	-0.515	-0.030
00:00:05.824	-0.470	-0.040
00:00:05.826	-0.575	-0.045
00:00:05.828	-0.675	-0.055
00:00:05.830	-0.720	-0.055
00:00:05.832	-0.690	-0.055
00:00:05.834	-0.640	-0.045
00:00:05.836	-0.555	-0.035
00:00:05.838	-0.540	-0.020
00:00:05.840	-0.545	-0.010
00:00:05.842	-0.450	-0.005
00:00:05.844	-0.450	-0.005
00:00:05.846	-0.550	-0.020
00:00:05.848	-0.640	-0.035
00:00:05.850	-0.730	-0.050
00:00:05.852	-0.725	-0.065
00:00:05.854	-0.735	-0.070
00:00:05.856	-0.650	-0.070
00:00:05.858	-0.535	-0.060
00:00:05.860	-0.495	-0.045
00:00:05.862	-0.440	-0.025
00:00:05.864	-0.515	-0.010
00:00:05.866	-0.510	0.005
00:00:05.868	-0.515	0.015
00:00:05.870	-0.685	0.020
00:00:05.872	-0.700	0.020
00:00:05.874	-0.610	0.015
00:00:05.876	-0.530	0.015
00:00:05.878	-0.475	0.015
00:00:05.880	-0.460	0.020
00:00:05.882	-0.425	0.020
00:00:05.884	-0.375	0.025
00:00:05.886	-0.490	0.030
00:00:05.888	-0.605	0.030
00:00:05.890	-0.685	0.025
00:00:05.892	-0.690	0.015
00:00:05.894	-0.650	0.000
00:00:05.896	-0.595	-0.015
00:00:05.898	-0.580	-0.030
00:00:05.900	-0.550	-0.045
00:00:05.902	-0.470	-0.055
00:00:05.904	-0.465	-0.060
00:00:05.906	-0.555	-0.065
00:00:05.908	-0.635	-0.060
00:00:05.910	-0.700	-0.055
00:00:05.912	-0.720	-0.045
00:00:05.914	-0.685	-0.035
00:00:05.916	-0.640	-0.030
00:00:05.918	-0.570	-0.025
00:00:05.920	-0.425	-0.025
00:00:05.922	-0.425	-0.030
00:00:05.924	-0.515	-0.035
00:00:05.926	-0.525	-0.040
00:00:05.928	-0.540	-0.050
00:00:05.930	-0.770	-0.055
00:00:05.932	-0.755	-0.050
00:00:05.934	-0.705	-0.045
00:00:05.936	-0.675	-0.040
00:00:05.938	-0.530	-0.030
00:00:05.940	-0.355	-0.025
00:00:05.942	-0.390	-0.025
00:00:05.944	-0.515	-0.030
00:00:05.946	-0.600	-0.035
00:00:05.948	-0.625	-0.050
00:00:05.950	-0.840	-0.060
00:00:05.952	-0.770	-0.070
00:00:05.954	-0.650	-0.070
00:00:05.956	-0.580	-0.060
00:00:05.958	-0.565	-0.045
00:00:05.960	-0.425	-0.025
00:00:05.962	-0.445	-0.010
00:00:05.964	-0.510	0.005
00:00:05.966	-0.510	0.010
00:00:05.968	-0.495	0.000
00:00:05.970	-0.730	-0.015
00:00:05.972	-0.775	-0.035
00:00:05.974	-0.730	-0.060
00:00:05.976	-0.635	-0.075
00:00:05.978	-0.520	-0.085
00:00:05.980	-0.445	-0.080
00:00:05.982	-0.410	-0.065
00:00:05.984	-0.480	-0.040
00:00:05.986	-0.645	-0.010
00:00:05.988	-0.620	0.020
00:00:05.990	-0.685	0.045
00:00:05.992	-0.675	0.065
00:00:05.994	-0.450	0.080
00:00:05.996	-0.430	0.095
00:00:05.998	-0.255	0.110
00:00:06.000	-0.285	0.130
00:00:06.002	-0.275	0.155
00:00:06.004	-0.285	0.185
00:00:06.006	-0.345	0.220
00:00:06.008	-0.365	0.250
00:00:06.010	-0.425	0.270
00:00:06.012	-0.335	0.270
00:00:06.014	-0.290	0.255
00:00:06.016	-0.345	0.215
00:00:06.018	-0.320	0.155
00:00:06.020	-0.325	0.085
00:00:06.022	-0.430	0.010
00:00:06.024	-0.660	-0.060
00:00:06.026	-0.800	-0.115
00:00:06.028	-0.770	-0.155
00:00:06.030	-0.745	-0.170
00:00:06.032	-0.725	-0.170
00:00:06.034	-0.725	-0.155
00:00:06.036	-0.685	-0.130
00:00:06.038	-0.645	-0.100
00:00:06.040	-0.480	-0.075
00:00:06.042	-0.485	-0.055
00:00:06.044	-0.515	-0.045
00:00:06.046	-0.595	-0.045
00:00:06.048	-0.650	-0.050
00:00:06.050	-0.685	-0.055
00:00:06.052	-0.645	-0.060
00:00:06.054	-0.700	-0.065
00:00:06.056	-0.610	-0.065
00:00:06.058	-0.540	-0.065
00:00:06.060	-0.470	-0.060
00:00:06.062	-0.490	-0.050
00:00:06.064	-0.560	-0.045
00:00:06.066	-0.605	-0.040
00:00:06.068	-0.510	-0.040
00:00:06.070	-0.725	-0.040
00:00:06.072	-0.765	-0.040
00:00:06.074	-0.630	-0.040
00:00:06.076	-0.530	-0.040
00:00:06.078	-0.525	-0.035
00:00:06.080	-0.480	-0.030
00:00:06.082	-0.360	-0.025
00:00:06.084	-0.435	-0.020
00:00:06.086	-0.640	-0.015
00:00:06.088	-0.645	-0.020
00:00:06.090	-0.765	-0.025
00:00:06.092	-0.630	-0.035
00:00:06.094	-0.660	-0.050
00:00:06.096	-0.575	-0.060
00:00:06.098	-0.500	-0.065
00:00:06.100	-0.450	-0.065
00:00:06.102	-0.505	-0.055
00:00:06.104	-0.570	-0.035
00:00:06.106	-0.640	-0.010
00:00:06.108	-0.570	0.020
00:00:06.110	-0.480	0.040
00:00:06.112	-0.580	0.055
00:00:06.114	-0.560	0.060
00:00:06.116	-0.470	0.050
00:00:06.118	-0.430	0.030
00:00:06.120	-0.450	0.005
00:00:06.122	-0.490	-0.025
00:00:06.124	-0.515	-0.045
00:00:06.126	-0.650	-0.055
00:00:06.128	-0.665	-0.060
00:00:06.130	-0.700	-0.045
00:00:06.132	-0.660	-0.030
00:00:06.134	-0.555	-0.005
00:00:06.136	-0.460	0.020
00:00:06.138	-0.385	0.035
00:00:06.140	-0.300	0.045
00:00:06.142	-0.370	0.050
00:00:06.144	-0.490	0.040
00:00:06.146	-0.545	0.030
00:00:06.148	-0.640	0.010
00:00:06.150	-0.745	0.000
00:00:06.152	-0.670	-0.015
00:00:06.154	-0.560	-0.020
00:00:06.156	-0.455	-0.020
00:00:06.158	-0.390	-0.020
00:00:06.160	-0.325	-0.010
00:00:06.162	-0.485	-0.005
00:00:06.164	-0.555	0.005
00:00:06.166	-0.605	0.010
00:00:06.168	-0.605	0.020
00:00:06.170	-0.575	0.030
00:00:06.172	-0.555	0.040
00:00:06.174	-0.560	0.050
00:00:06.176	-0.435	0.065
00:00:06.178	-0.305	0.075
00:00:06.180	-0.315	0.080
00:00:06.182	-0.345	0.085
00:00:06.184	-0.425	0.080
00:00:06.186	-0.465	0.075
00:00:06.188	-0.610	0.065
00:00:06.190	-0.575	0.050
00:00:06.192	-0.600	0.040
00:00:06.194	-0.650	0.040
00:00:06.196	-0.470	0.040
00:00:06.198	-0.260	0.055
00:00:06.200	-0.290	0.070
00:00:06.202	-0.330	0.090
00:00:06.204	-0.435	0.110
00:00:06.206	-0.465	0.130
00:00:06.208	-0.565	0.140
00:00:06.210	-0.495	0.140
00:00:06.212	-0.495	0.140
00:00:06.214	-0.400	0.135
00:00:06.216	-0.340	0.130
00:00:06.218	-0.270	0.130
00:00:06.220	-0.225	0.135
00:00:06.222	-0.190	0.145
00:00:06.224	-0.355	0.165
00:00:06.226	-0.455	0.190
00:00:06.228	-0.505	0.210
00:00:06.230	-0.355	0.225
00:00:06.232	-0.370	0.230
00:00:06.234	-0.345	0.225
00:00:06.236	-0.335	0.215
00:00:06.238	-0.175	0.205
00:00:06.240	-0.175	0.190
00:00:06.242	-0.170	0.180
00:00:06.244	-0.370	0.180
00:00:06.246	-0.410	0.185
00:00:06.248	-0.585	0.195
00:00:06.250	-0.420	0.210
00:00:06.252	-0.320	0.220
00:00:06.254	-0.290	0.230
00:00:06.256	-0.280	0.230
00:00:06.258	-0.120	0.230
00:00:06.260	-0.140	0.220
00:00:06.262	-0.295	0.210
00:00:06.264	-0.375	0.205
00:00:06.266	-0.445	0.205
00:00:06.268	-0.445	0.205
00:00:06.270	-0.330	0.210
00:00:06.272	-0.340	0.210
00:00:06.274	-0.310	0.205
00:00:06.276	-0.325	0.195
00:00:06.278	-0.175	0.180
00:00:06.280	-0.295	0.160
00:00:06.282	-0.395	0.140
00:00:06.284	-0.405	0.120
00:00:06.286	-0.475	0.110
00:00:06.288	-0.565	0.105
00:00:06.290	-0.545	0.110
00:00:06.292	-0.395	0.125
00:00:06.294	-0.355	0.135
00:00:06.296	-0.310	0.145
00:00:06.298	-0.225	0.145
00:00:06.300	-0.330	0.140
00:00:06.302	-0.375	0.120
00:00:06.304	-0.450	0.090
00:00:06.306	-0.575	0.055
00:00:06.308	-0.685	0.020
00:00:06.310	-0.670	-0.010
00:00:06.312	-0.575	-0.035
00:00:06.314	-0.540	-0.055
00:00:06.316	-0.480	-0.070
00:00:06.318	-0.495	-0.075
00:00:06.320	-0.575	-0.080
00:00:06.322	-0.620	-0.075
00:00:06.324	-0.600	-0.070
00:00:06.326	-0.605	-0.060
00:00:06.328	-0.655	-0.045
00:00:06.330	-0.620	-0.030
00:00:06.332	-0.510	-0.015
00:00:06.334	-0.450	-0.005
00:00:06.336	-0.480	-0.005
00:00:06.338	-0.485	-0.010
00:00:06.340	-0.520	-0.030
00:00:06.342	-0.530	-0.060
00:00:06.344	-0.645	-0.090
00:00:06.346	-0.660	-0.125
00:00:06.348	-0.820	-0.150
00:00:06.350	-0.775	-0.160
00:00:06.352	-0.655	-0.155
00:00:06.354	-0.580	-0.140
00:00:06.356	-0.530	-0.115
00:00:06.358	-0.505	-0.085
00:00:06.360	-0.485	-0.055
00:00:06.362	-0.570	-0.035
00:00:06.364	-0.540	-0.030
00:00:06.366	-0.585	-0.030
00:00:06.368	-0.705	-0.045
00:00:06.370	-0.745	-0.060
00:00:06.372	-0.665	-0.075
00:00:06.374	-0.555	-0.085
00:00:06.376	-0.440	-0.085
00:00:06.378	-0.375	-0.080
00:00:06.380	-0.405	-0.070
00:00:06.382	-0.605	-0.060
00:00:06.384	-0.720	-0.050
00:00:06.386	-0.690	-0.050
00:00:06.388	-0.620	-0.055
00:00:06.390	-0.630	-0.065
00:00:06.392	-0.675	-0.075
00:00:06.394	-0.635	-0.085
00:00:06.396	-0.555	-0.090
00:00:06.398	-0.425	-0.085
00:00:06.400	-0.470	-0.070
00:00:06.402	-0.430	-0.055
00:00:06.404	-0.605	-0.040
00:00:06.406	-0.660	-0.025
00:00:06.408	-0.690	-0.025
00:00:06.410	-0.565	-0.025
00:00:06.412	-0.645	-0.040
00:00:06.414	-0.510	-0.055
00:00:06.416	-0.510	-0.075
00:00:06.418	-0.545	-0.090
00:00:06.420	-0.430	-0.095
00:00:06.422	-0.580	-0.100
00:00:06.424	-0.655	-0.090
00:00:06.426	-0.700	-0.080
00:00:06.428	-0.695	-0.070
00:00:06.430	-0.700	-0.060
00:00:06.432	-0.625	-0.055
00:00:06.434	-0.425	-0.055
00:00:06.436	-0.350	-0.060
00:00:06.438	-0.485	-0.065
00:00:06.440	-0.505	-0.065
00:00:06.442	-0.620	-0.065
00:00:06.444	-0.675	-0.060
00:00:06.446	-0.695	-0.050
00:00:06.448	-0.610	-0.040
00:00:06.450	-0.595	-0.030
00:00:06.452	-0.455	-0.025
00:00:06.454	-0.470	-0.025
00:00:06.456	-0.485	-0.035
00:00:06.458	-0.550	-0.055
00:00:06.460	-0.560	-0.075
00:00:06.462	-0.570	-0.095
00:00:06.464	-0.550	-0.115
00:00:06.466	-0.765	-0.125
00:00:06.468	-0.755	-0.125
00:00:06.470	-0.680	-0.110
00:00:06.472	-0.595	-0.090
00:00:06.474	-0.560	-0.070
00:00:06.476	-0.430	-0.045
00:00:06.478	-0.415	-0.030
00:00:06.480	-0.380	-0.015
00:00:06.482	-0.550	-0.015
00:00:06.484	-0.585	-0.025
00:00:06.486	-0.710	-0.040
00:00:06.488	-0.630	-0.055
00:00:06.490	-0.665	-0.075
00:00:06.492	-0.600	-0.090
00:00:06.494	-0.535	-0.100
00:00:06.496	-0.465	-0.105
00:00:06.498	-0.525	-0.100
00:00:06.500	-0.520	-0.095
00:00:06.502	-0.630	-0.080
00:00:06.504	-0.650	-0.065
00:00:06.506	-0.630	-0.050
00:00:06.508	-0.665	-0.040
00:00:06.510	-0.600	-0.030
00:00:06.512	-0.455	-0.030
00:00:06.514	-0.500	-0.040
00:00:06.516	-0.480	-0.055
00:00:06.518	-0.500	-0.070
00:00:06.520	-0.550	-0.095
00:00:06.522	-0.625	-0.115
00:00:06.524	-0.660	-0.130
00:00:06.526	-0.825	-0.135
00:00:06.528	-0.780	-0.135
00:00:06.530	-0.690	-0.125
00:00:06.532	-0.515	-0.105
00:00:06.534	-0.505	-0.085
00:00:06.536	-0.505	-0.065
00:00:06.538	-0.450	-0.050
00:00:06.540	-0.440	-0.045
00:00:06.542	-0.500	-0.045
00:00:06.544	-0.670	-0.055
00:00:06.546	-0.745	-0.070
00:00:06.548	-0.755	-0.080
00:00:06.550	-0.725	-0.085
00:00:06.552	-0.500	-0.080
00:00:06.554	-0.510	-0.070
00:00:06.556	-0.405	-0.050
00:00:06.558	-0.435	-0.025
00:00:06.560	-0.490	-0.005
00:00:06.562	-0.490	0.010
00:00:06.564	-0.525	0.015
00:00:06.566	-0.585	0.010
00:00:06.568	-0.650	0.000
00:00:06.570	-0.655	-0.015
00:00:06.572	-0.475	-0.035
00:00:06.574	-0.510	-0.050
00:00:06.576	-0.440	-0.055
00:00:06.578	-0.415	-0.060
00:00:06.580	-0.505	-0.055
00:00:06.582	-0.595	-0.045
00:00:06.584	-0.655	-0.035
00:00:06.586	-0.560	-0.025
00:00:06.588	-0.550	-0.020
00:00:06.590	-0.605	-0.015
00:00:06.592	-0.580	-0.020
00:00:06.594	-0.490	-0.030
00:00:06.596	-0.420	-0.035
00:00:06.598	-0.390	-0.045
00:00:06.600	-0.435	-0.055
00:00:06.602	-0.565	-0.060
00:00:06.604	-0.620	-0.060
00:00:06.606	-0.785	-0.060
00:00:06.608	-0.845	-0.055
00:00:06.610	-0.530	-0.050
00:00:06.612	-0.460	-0.040
00:00:06.614	-0.450	-0.030
00:00:06.616	-0.430	-0.020
00:00:06.618	-0.425	-0.005
00:00:06.620	-0.455	0.000
00:00:06.622	-0.450	0.005
00:00:06.624	-0.555	0.005
00:00:06.626	-0.555	-0.005
00:00:06.628	-0.630	-0.020
00:00:06.630	-0.665	-0.045
00:00:06.632	-0.520	-0.070
00:00:06.634	-0.570	-0.100
00:00:06.636	-0.605	-0.120
00:00:06.638	-0.545	-0.140
00:00:06.640	-0.605	-0.145
00:00:06.642	-0.665	-0.140
00:00:06.644	-0.680	-0.125
00:00:06.646	-0.630	-0.105
00:00:06.648	-0.610	-0.080
00:00:06.650	-0.615	-0.060
00:00:06.652	-0.560	-0.045
00:00:06.654	-0.540	-0.035
00:00:06.656	-0.385	-0.035
00:00:06.658	-0.480	-0.040
00:00:06.660	-0.550	-0.050
00:00:06.662	-0.580	-0.060
00:00:06.664	-0.570	-0.070
00:00:06.666	-0.645	-0.075
00:00:06.668	-0.605	-0.080
00:00:06.670	-0.645	-0.085
00:00:06.672	-0.605	-0.085
00:00:06.674	-0.495	-0.090
00:00:06.676	-0.525	-0.090
00:00:06.678	-0.580	-0.095
00:00:06.680	-0.620	-0.095
00:00:06.682	-0.575	-0.095
00:00:06.684	-0.590	-0.085
00:00:06.686	-0.655	-0.075
00:00:06.688	-0.635	-0.060
00:00:06.690	-0.535	-0.045
00:00:06.692	-0.480	-0.030
00:00:06.694	-0.465	-0.020
00:00:06.696	-0.420	-0.025
00:00:06.698	-0.420	-0.035
00:00:06.700	-0.525	-0.055
00:00:06.702	-0.665	-0.075
00:00:06.704	-0.685	-0.100
00:00:06.706	-0.685	-0.110
00:00:06.708	-0.685	-0.115
00:00:06.710	-0.605	-0.105
00:00:06.712	-0.540	-0.080
00:00:06.714	-0.440	-0.045
00:00:06.716	-0.385	0.000
00:00:06.718	-0.375	0.045
00:00:06.720	-0.340	0.080
00:00:06.722	-0.420	0.110
00:00:06.724	-0.405	0.135
00:00:06.726	-0.465	0.145
00:00:06.728	-0.495	0.155
00:00:06.730	-0.415	0.165
00:00:06.732	-0.255	0.170
00:00:06.734	-0.165	0.185
00:00:06.736	-0.065	0.200
00:00:06.738	-0.235	0.215
00:00:06.740	-0.295	0.225
00:00:06.742	-0.255	0.225
00:00:06.744	-0.260	0.210
00:00:06.746	-0.425	0.175
00:00:06.748	-0.480	0.125
00:00:06.750	-0.465	0.060
00:00:06.752	-0.615	-0.010
00:00:06.754	-0.605	-0.080
00:00:06.756	-0.520	-0.140
00:00:06.758	-0.440	-0.180
00:00:06.760	-0.700	-0.195
00:00:06.762	-0.670	-0.190
00:00:06.764	-0.735	-0.170
00:00:06.766	-0.675	-0.135
00:00:06.768	-0.685	-0.100
00:00:06.770	-0.600	-0.070
00:00:06.772	-0.570	-0.050
00:00:06.774	-0.540	-0.040
00:00:06.776	-0.400	-0.050
00:00:06.778	-0.425	-0.060
00:00:06.780	-0.525	-0.080
00:00:06.782	-0.660	-0.095
00:00:06.784	-0.740	-0.100
00:00:06.786	-0.680	-0.100
00:00:06.788	-0.620	-0.085
00:00:06.790	-0.585	-0.065
00:00:06.792	-0.545	-0.040
00:00:06.794	-0.440	-0.020
00:00:06.796	-0.375	-0.005
00:00:06.798	-0.415	0.000
00:00:06.800	-0.460	-0.010
00:00:06.802	-0.525	-0.030
00:00:06.804	-0.575	-0.055
00:00:06.806	-0.730	-0.080
00:00:06.808	-0.800	-0.105
00:00:06.810	-0.630	-0.120
00:00:06.812	-0.630	-0.125
00:00:06.814	-0.480	-0.120
00:00:06.816	-0.480	-0.110
00:00:06.818	-0.475	-0.090
00:00:06.820	-0.495	-0.070
00:00:06.822	-0.570	-0.045
00:00:06.824	-0.650	-0.030
00:00:06.826	-0.645	-0.015
00:00:06.828	-0.575	-0.010
00:00:06.830	-0.455	-0.010
00:00:06.832	-0.490	-0.010
00:00:06.834	-0.335	-0.020
00:00:06.836	-0.490	-0.025
00:00:06.838	-0.530	-0.035
00:00:06.840	-0.450	-0.040
00:00:06.842	-0.475	-0.040
00:00:06.844	-0.650	-0.040
00:00:06.846	-0.650	-0.035
00:00:06.848	-0.600	-0.030
00:00:06.850	-0.535	-0.025
00:00:06.852	-0.460	-0.025
00:00:06.854	-0.295	-0.030
00:00:06.856	-0.425	-0.040
00:00:06.858	-0.480	-0.055
00:00:06.860	-0.630	-0.070
00:00:06.862	-0.665	-0.080
00:00:06.864	-0.665	-0.090
00:00:06.866	-0.635	-0.090
00:00:06.868	-0.640	-0.080
00:00:06.870	-0.605	-0.065
00:00:06.872	-0.580	-0.045
00:00:06.874	-0.350	-0.025
00:00:06.876	-0.310	0.000
00:00:06.878	-0.420	0.015
00:00:06.880	-0.445	0.020
00:00:06.882	-0.485	0.020
00:00:06.884	-0.580	0.015
00:00:06.886	-0.655	0.010
00:00:06.888	-0.570	0.000
00:00:06.890	-0.465	-0.005
00:00:06.892	-0.445	-0.005
00:00:06.894	-0.370	-0.005
00:00:06.896	-0.350	0.000
00:00:06.898	-0.420	0.000
00:00:06.900	-0.480	0.000
00:00:06.902	-0.490	0.000
00:00:06.904	-0.650	-0.005
00:00:06.906	-0.620	-0.010
00:00:06.908	-0.545	-0.010
00:00:06.910	-0.470	-0.005
00:00:06.912	-0.390	0.005
00:00:06.914	-0.320	0.020
00:00:06.916	-0.340	0.045
00:00:06.918	-0.380	0.070
00:00:06.920	-0.405	0.095
00:00:06.922	-0.400	0.115
00:00:06.924	-0.455	0.125
00:00:06.926	-0.465	0.125
00:00:06.928	-0.405	0.115
00:00:06.930	-0.430	0.100
00:00:06.932	-0.420	0.085
00:00:06.934	-0.335	0.070
00:00:06.936	-0.240	0.065
00:00:06.938	-0.315	0.065
00:00:06.940	-0.435	0.075
00:00:06.942	-0.445	0.095
00:00:06.944	-0.480	0.120
00:00:06.946	-0.515	0.145
00:00:06.948	-0.395	0.165
00:00:06.950	-0.180	0.190
00:00:06.952	-0.260	0.205
00:00:06.954	-0.140	0.220
00:00:06.956	-0.070	0.225
00:00:06.958	-0.220	0.230
00:00:06.960	-0.340	0.230
00:00:06.962	-0.310	0.230
00:00:06.964	-0.415	0.220
00:00:06.966	-0.320	0.215
00:00:06.968	-0.225	0.205
00:00:06.970	-0.365	0.195
00:00:06.972	-0.350	0.190
00:00:06.974	-0.155	0.185
00:00:06.976	-0.110	0.185
00:00:06.978	-0.190	0.190
00:00:06.980	-0.330	0.200
00:00:06.982	-0.375	0.215
00:00:06.984	-0.415	0.230
00:00:06.986	-0.360	0.250
00:00:06.988	-0.210	0.260
00:00:06.990	-0.085	0.270
00:00:06.992	-0.120	0.270
00:00:06.994	-0.080	0.270
00:00:06.996	-0.130	0.260
00:00:06.998	-0.270	0.245
00:00:07.000	-0.340	0.230
00:00:07.002	-0.345	0.215
00:00:07.004	-0.300	0.200
00:00:07.006	-0.380	0.185
00:00:07.008	-0.390	0.170
00:00:07.010	-0.365	0.160
00:00:07.012	-0.235	0.145
00:00:07.014	-0.185	0.135
00:00:07.016	-0.255	0.120
00:00:07.018	-0.370	0.105
00:00:07.020	-0.445	0.090
00:00:07.022	-0.500	0.075
00:00:07.024	-0.555	0.060
00:00:07.026	-0.600	0.050
00:00:07.028	-0.545	0.040
00:00:07.030	-0.405	0.035
00:00:07.032	-0.310	0.030
00:00:07.034	-0.250	0.025
00:00:07.036	-0.350	0.025
00:00:07.038	-0.405	0.020
00:00:07.040	-0.465	0.015
00:00:07.042	-0.595	0.010
00:00:07.044	-0.645	0.000
00:00:07.046	-0.605	-0.005
00:00:07.048	-0.525	-0.010
00:00:07.050	-0.470	-0.015
00:00:07.052	-0.420	-0.015
00:00:07.054	-0.310	-0.005
00:00:07.056	-0.370	0.000
00:00:07.058	-0.440	0.010
00:00:07.060	-0.560	0.020
00:00:07.062	-0.645	0.025
00:00:07.064	-0.565	0.020
00:00:07.066	-0.585	0.015
00:00:07.068	-0.505	0.000
00:00:07.070	-0.470	-0.020
00:00:07.072	-0.375	-0.035
00:00:07.074	-0.400	-0.050
00:00:07.076	-0.490	-0.060
00:00:07.078	-0.480	-0.060
00:00:07.080	-0.625	-0.055
00:00:07.082	-0.710	-0.040
00:00:07.084	-0.630	-0.025
00:00:07.086	-0.535	-0.015
00:00:07.088	-0.480	-0.005
00:00:07.090	-0.460	-0.005
00:00:07.092	-0.420	-0.015
00:00:07.094	-0.375	-0.035
00:00:07.096	-0.465	-0.050
00:00:07.098	-0.475	-0.070
00:00:07.100	-0.595	-0.080
00:00:07.102	-0.735	-0.085
00:00:07.104	-0.730	-0.075
00:00:07.106	-0.720	-0.060
00:00:07.108	-0.515	-0.040
00:00:07.110	-0.405	-0.020
00:00:07.112	-0.230	0.000
00:00:07.114	-0.310	0.010
00:00:07.116	-0.395	0.015
00:00:07.118	-0.555	0.005
00:00:07.120	-0.575	-0.010
00:00:07.122	-0.620	-0.030
00:00:07.124	-0.640	-0.050
00:00:07.126	-0.665	-0.070
00:00:07.128	-0.525	-0.085
00:00:07.130	-0.540	-0.095
00:00:07.132	-0.510	-0.100
00:00:07.134	-0.510	-0.090
00:00:07.136	-0.460	-0.080
00:00:07.138	-0.495	-0.060
00:00:07.140	-0.530	-0.040
00:00:07.142	-0.605	-0.020
00:00:07.144	-0.615	0.000
00:00:07.146	-0.500	0.015
00:00:07.148	-0.450	0.025
00:00:07.150	-0.445	0.025
00:00:07.152	-0.405	0.020
00:00:07.154	-0.360	0.010
00:00:07.156	-0.410	-0.005
00:00:07.158	-0.455	-0.020
00:00:07.160	-0.520	-0.040
00:00:07.162	-0.665	-0.050
00:00:07.164	-0.750	-0.060
00:00:07.166	-0.630	-0.065
00:00:07.168	-0.525	-0.065
00:00:07.170	-0.445	-0.055
00:00:07.172	-0.400	-0.045
00:00:07.174	-0.405	-0.035
00:00:07.176	-0.435	-0.025
00:00:07.178	-0.535	-0.020
00:00:07.180	-0.545	-0.020
00:00:07.182	-0.610	-0.020
00:00:07.184	-0.655	-0.025
00:00:07.186	-0.575	-0.030
00:00:07.188	-0.475	-0.040
00:00:07.190	-0.520	-0.040
00:00:07.192	-0.355	-0.040
00:00:07.194	-0.350	-0.035
00:00:07.196	-0.425	-0.025
00:00:07.198	-0.525	-0.015
00:00:07.200	-0.550	-0.010
00:00:07.202	-0.670	-0.010
00:00:07.204	-0.625	-0.010
00:00:07.206	-0.515	-0.020
00:00:07.208	-0.505	-0.035
00:00:07.210	-0.490	-0.050
00:00:07.212	-0.380	-0.060
00:00:07.214	-0.435	-0.070
00:00:07.216	-0.450	-0.070
00:00:07.218	-0.565	-0.060
00:00:07.220	-0.645	-0.045
00:00:07.222	-0.670	-0.030
00:00:07.224	-0.620	-0.010
00:00:07.226	-0.480	0.005
00:00:07.228	-0.305	0.010
00:00:07.230	-0.305	0.010
00:00:07.232	-0.395	0.005
00:00:07.234	-0.470	-0.010
00:00:07.236	-0.575	-0.025
00:00:07.238	-0.590	-0.045
00:00:07.240	-0.585	-0.060
00:00:07.242	-0.630	-0.065
00:00:07.244	-0.570	-0.070
00:00:07.246	-0.565	-0.070
00:00:07.248	-0.550	-0.065
00:00:07.250	-0.555	-0.055
00:00:07.252	-0.415	-0.050
00:00:07.254	-0.415	-0.040
00:00:07.256	-0.425	-0.035
00:00:07.258	-0.495	-0.025
00:00:07.260	-0.520	-0.020
00:00:07.262	-0.695	-0.015
00:00:07.264	-0.620	-0.015
00:00:07.266	-0.470	-0.015
00:00:07.268	-0.425	-0.020
00:00:07.270	-0.485	-0.035
00:00:07.272	-0.425	-0.050
00:00:07.274	-0.425	-0.070
00:00:07.276	-0.520	-0.085
00:00:07.278	-0.645	-0.100
00:00:07.280	-0.675	-0.100
00:00:07.282	-0.675	-0.095
00:00:07.284	-0.635	-0.075
00:00:07.286	-0.505	-0.055
00:00:07.288	-0.515	-0.030
00:00:07.290	-0.375	-0.005
00:00:07.292	-0.300	0.005
00:00:07.294	-0.360	0.010
00:00:07.296	-0.510	0.000
00:00:07.298	-0.535	-0.010
00:00:07.300	-0.585	-0.030
00:00:07.302	-0.660	-0.040
00:00:07.304	-0.690	-0.045
00:00:07.306	-0.585	-0.035
00:00:07.308	-0.440	-0.020
00:00:07.310	-0.265	0.000
00:00:07.312	-0.290	0.020
00:00:07.314	-0.315	0.030
00:00:07.316	-0.460	0.025
00:00:07.318	-0.550	0.010
00:00:07.320	-0.600	-0.025
00:00:07.322	-0.705	-0.060
00:00:07.324	-0.615	-0.100
00:00:07.326	-0.745	-0.130
00:00:07.328	-0.600	-0.145
00:00:07.330	-0.485	-0.145
00:00:07.332	-0.395	-0.130
00:00:07.334	-0.425	-0.100
00:00:07.336	-0.435	-0.065
00:00:07.338	-0.535	-0.030
00:00:07.340	-0.630	-0.010
00:00:07.342	-0.685	0.005
00:00:07.344	-0.660	0.005
00:00:07.346	-0.555	-0.005
00:00:07.348	-0.465	-0.025
00:00:07.350	-0.380	-0.045
00:00:07.352	-0.325	-0.065
00:00:07.354	-0.400	-0.080
00:00:07.356	-0.550	-0.090
00:00:07.358	-0.630	-0.090
00:00:07.360	-0.750	-0.085
00:00:07.362	-0.775	-0.075
00:00:07.364	-0.610	-0.065
00:00:07.366	-0.520	-0.050
00:00:07.368	-0.500	-0.040
00:00:07.370	-0.345	-0.030
00:00:07.372	-0.345	-0.020
00:00:07.374	-0.405	-0.015
00:00:07.376	-0.495	-0.010
00:00:07.378	-0.555	-0.005
00:00:07.380	-0.625	0.000
00:00:07.382	-0.600	0.000
00:00:07.384	-0.615	0.000
00:00:07.386	-0.460	0.000
00:00:07.388	-0.360	0.000
00:00:07.390	-0.290	0.000
00:00:07.392	-0.365	0.000
00:00:07.394	-0.440	0.000
00:00:07.396	-0.515	0.000
00:00:07.398	-0.550	0.000
00:00:07.400	-0.630	-0.005
00:00:07.402	-0.630	-0.010
00:00:07.404	-0.500	-0.020
00:00:07.406	-0.455	-0.030
00:00:07.408	-0.540	-0.035
00:00:07.410	-0.440	-0.040
00:00:07.412	-0.390	-0.045
00:00:07.414	-0.435	-0.040
00:00:07.416	-0.465	-0.035
00:00:07.418	-0.480	-0.025
00:00:07.420	-0.665	-0.015
00:00:07.422	-0.655	-0.010
00:00:07.424	-0.550	-0.005
00:00:07.426	-0.440	-0.005
00:00:07.428	-0.430	-0.010
00:00:07.430	-0.315	-0.020
00:00:07.432	-0.395	-0.030
00:00:07.434	-0.510	-0.045
00:00:07.436	-0.580	-0.055
00:00:07.438	-0.535	-0.060
00:00:07.440	-0.700	-0.065
00:00:07.442	-0.650	-0.060
00:00:07.444	-0.610	-0.060
00:00:07.446	-0.525	-0.055
00:00:07.448	-0.410	-0.050
00:00:07.450	-0.370	-0.050
00:00:07.452	-0.450	-0.050
00:00:07.454	-0.520	-0.055
00:00:07.456	-0.600	-0.060
00:00:07.458	-0.605	-0.060
00:00:07.460	-0.630	-0.060
00:00:07.462	-0.530	-0.060
00:00:07.464	-0.585	-0.055
00:00:07.466	-0.545	-0.045
00:00:07.468	-0.485	-0.035
00:00:07.470	-0.365	-0.025
00:00:07.472	-0.385	-0.020
00:00:07.474	-0.410	-0.025
00:00:07.476	-0.600	-0.030
00:00:07.478	-0.575	-0.045
00:00:07.480	-0.620	-0.060
00:00:07.482	-0.670	-0.080
00:00:07.484	-0.680	-0.090
00:00:07.486	-0.555	-0.095
00:00:07.488	-0.540	-0.095
00:00:07.490	-0.425	-0.080
00:00:07.492	-0.430	-0.060
00:00:07.494	-0.455	-0.040
00:00:07.496	-0.495	-0.020
00:00:07.498	-0.500	-0.005
00:00:07.500	-0.555	0.005
00:00:07.502	-0.620	0.000
00:00:07.504	-0.575	-0.010
00:00:07.506	-0.445	-0.020
00:00:07.508	-0.455	-0.030
00:00:07.510	-0.420	-0.035
00:00:07.512	-0.415	-0.025
00:00:07.514	-0.435	0.000
00:00:07.516	-0.440	0.035
00:00:07.518	-0.500	0.080
00:00:07.520	-0.470	0.130
00:00:07.522	-0.335	0.175
00:00:07.524	-0.170	0.220
00:00:07.526	-0.260	0.250
00:00:07.528	-0.170	0.275
00:00:07.530	-0.040	0.285
00:00:07.532	-0.135	0.290
00:00:07.534	-0.105	0.290
00:00:07.536	-0.235	0.280
00:00:07.538	-0.315	0.265
00:00:07.540	-0.370	0.240
00:00:07.542	-0.345	0.205
00:00:07.544	-0.270	0.160
00:00:07.546	-0.320	0.110
00:00:07.548	-0.400	0.055
00:00:07.550	-0.395	0.000
00:00:07.552	-0.500	-0.055
00:00:07.554	-0.600	-0.095
00:00:07.556	-0.670	-0.125
00:00:07.558	-0.745	-0.135
00:00:07.560	-0.730	-0.135
00:00:07.562	-0.635	-0.120
00:00:07.564	-0.585	-0.105
00:00:07.566	-0.515	-0.085
00:00:07.568	-0.440	-0.070
00:00:07.570	-0.330	-0.065
00:00:07.572	-0.435	-0.060
00:00:07.574	-0.625	-0.065
00:00:07.576	-0.630	-0.070
00:00:07.578	-0.660	-0.075
00:00:07.580	-0.650	-0.080
00:00:07.582	-0.610	-0.080
00:00:07.584	-0.580	-0.075
00:00:07.586	-0.520	-0.065
00:00:07.588	-0.470	-0.055
00:00:07.590	-0.360	-0.045
00:00:07.592	-0.380	-0.035
00:00:07.594	-0.485	-0.030
00:00:07.596	-0.530	-0.030
00:00:07.598	-0.665	-0.030
00:00:07.600	-0.630	-0.040
00:00:07.602	-0.610	-0.045
00:00:07.604	-0.550	-0.055
00:00:07.606	-0.480	-0.060
00:00:07.608	-0.480	-0.060
00:00:07.610	-0.500	-0.055
00:00:07.612	-0.425	-0.050
00:00:07.614	-0.480	-0.040
00:00:07.616	-0.535	-0.025
00:00:07.618	-0.585	-0.015
00:00:07.620	-0.550	-0.010
00:00:07.622	-0.615	-0.005
00:00:07.624	-0.565	-0.010
00:00:07.626	-0.390	-0.015
00:00:07.628	-0.320	-0.025
00:00:07.630	-0.380	-0.030
00:00:07.632	-0.515	-0.035
00:00:07.634	-0.515	-0.030
00:00:07.636	-0.540	-0.020
00:00:07.638	-0.560	-0.005
00:00:07.640	-0.540	0.015
00:00:07.642	-0.505	0.035
00:00:07.644	-0.400	0.050
00:00:07.646	-0.370	0.050
00:00:07.648	-0.275	0.040
00:00:07.650	-0.355	0.020
00:00:07.652	-0.525	-0.010
00:00:07.654	-0.525	-0.040
00:00:07.656	-0.510	-0.060
00:00:07.658	-0.770	-0.070
00:00:07.660	-0.665	-0.070
00:00:07.662	-0.580	-0.050
00:00:07.664	-0.425	-0.020
00:00:07.666	-0.330	0.015
00:00:07.668	-0.280	0.045
00:00:07.670	-0.280	0.070
00:00:07.672	-0.330	0.080
00:00:07.674	-0.430	0.070
00:00:07.676	-0.535	0.050
00:00:07.678	-0.625	0.025
00:00:07.680	-0.615	-0.005
00:00:07.682	-0.610	-0.030
00:00:07.684	-0.560	-0.045
00:00:07.686	-0.490	-0.050
00:00:07.688	-0.475	-0.045
00:00:07.690	-0.370	-0.030
00:00:07.692	-0.365	-0.015
00:00:07.694	-0.440	0.005
00:00:07.696	-0.445	0.020
00:00:07.698	-0.575	0.035
00:00:07.700	-0.600	0.045
00:00:07.702	-0.575	0.050
00:00:07.704	-0.540	0.055
00:00:07.706	-0.515	0.060
00:00:07.708	-0.185	0.065
00:00:07.710	-0.135	0.075
00:00:07.712	-0.285	0.075
00:00:07.714	-0.400	0.080
00:00:07.716	-0.480	0.080
00:00:07.718	-0.545	0.075
00:00:07.720	-0.550	0.075
00:00:07.722	-0.400	0.070
00:00:07.724	-0.340	0.075
00:00:07.726	-0.475	0.080
00:00:07.728	-0.325	0.090
00:00:07.730	-0.145	0.105
00:00:07.732	-0.305	0.115
00:00:07.734	-0.400	0.130
00:00:07.736	-0.345	0.140
00:00:07.738	-0.435	0.140
00:00:07.740	-0.520	0.140
00:00:07.742	-0.460	0.135
00:00:07.744	-0.320	0.130
00:00:07.746	-0.300	0.130
00:00:07.748	-0.210	0.130
00:00:07.750	-0.170	0.145
00:00:07.752	-0.250	0.160
00:00:07.754	-0.310	0.185
00:00:07.756	-0.320	0.210
00:00:07.758	-0.430	0.230
00:00:07.760	-0.310	0.240
00:00:07.762	-0.195	0.245
00:00:07.764	-0.270	0.235
00:00:07.766	-0.285	0.220
00:00:07.768	-0.265	0.200
00:00:07.770	-0.160	0.175
00:00:07.772	-0.190	0.160
00:00:07.774	-0.350	0.150
00:00:07.776	-0.415	0.155
00:00:07.778	-0.430	0.165
00:00:07.780	-0.400	0.185
00:00:07.782	-0.315	0.210
00:00:07.784	-0.170	0.235
00:00:07.786	-0.160	0.255
00:00:07.788	-0.095	0.270
00:00:07.790	-0.090	0.280
00:00:07.792	-0.135	0.275
00:00:07.794	-0.195	0.270
00:00:07.796	-0.245	0.260
00:00:07.798	-0.355	0.245
00:00:07.800	-0.360	0.235
00:00:07.802	-0.335	0.225
00:00:07.804	-0.265	0.210
00:00:07.806	-0.190	0.200
00:00:07.808	-0.200	0.185
00:00:07.810	-0.220	0.170
00:00:07.812	-0.275	0.150
00:00:07.814	-0.435	0.130
00:00:07.816	-0.440	0.105
00:00:07.818	-0.520	0.085
00:00:07.820	-0.570	0.070
00:00:07.822	-0.480	0.055
00:00:07.824	-0.330	0.050
00:00:07.826	-0.365	0.045
00:00:07.828	-0.300	0.045
00:00:07.830	-0.305	0.045
00:00:07.832	-0.430	0.045
00:00:07.834	-0.460	0.045
00:00:07.836	-0.550	0.040
00:00:07.838	-0.590	0.035
00:00:07.840	-0.590	0.025
00:00:07.842	-0.545	0.015
00:00:07.844	-0.495	0.010
00:00:07.846	-0.405	0.005
00:00:07.848	-0.345	0.005
00:00:07.850	-0.325	0.010
00:00:07.852	-0.395	0.010
00:00:07.854	-0.505	0.015
00:00:07.856	-0.600	0.010
00:00:07.858	-0.610	0.005
00:00:07.860	-0.580	-0.010
00:00:07.862	-0.495	-0.030
00:00:07.864	-0.535	-0.050
00:00:07.866	-0.550	-0.070
00:00:07.868	-0.485	-0.085
00:00:07.870	-0.400	-0.095
00:00:07.872	-0.475	-0.095
00:00:07.874	-0.650	-0.085
00:00:07.876	-0.660	-0.065
00:00:07.878	-0.665	-0.045
00:00:07.880	-0.565	-0.020
00:00:07.882	-0.515	-0.005
00:00:07.884	-0.495	0.005
00:00:07.886	-0.435	0.005
00:00:07.888	-0.345	0.000
00:00:07.890	-0.390	-0.020
00:00:07.892	-0.450	-0.040
00:00:07.894	-0.590	-0.060
00:00:07.896	-0.720	-0.080
00:00:07.898	-0.725	-0.095
00:00:07.900	-0.720	-0.105
00:00:07.902	-0.640	-0.100
00:00:07.904	-0.560	-0.095
00:00:07.906	-0.395	-0.080
00:00:07.908	-0.425	-0.065
00:00:07.910	-0.435	-0.050
00:00:07.912	-0.505	-0.040
00:00:07.914	-0.550	-0.030
00:00:07.916	-0.600	-0.020
00:00:07.918	-0.595	-0.020
00:00:07.920	-0.540	-0.020
00:00:07.922	-0.565	-0.025
00:00:07.924	-0.490	-0.030
00:00:07.926	-0.440	-0.035
00:00:07.928	-0.425	-0.045
00:00:07.930	-0.355	-0.050
00:00:07.932	-0.525	-0.060
00:00:07.934	-0.640	-0.065
00:00:07.936	-0.715	-0.065
00:00:07.938	-0.680	-0.065
00:00:07.940	-0.630	-0.060
00:00:07.942	-0.585	-0.055
00:00:07.944	-0.420	-0.045
00:00:07.946	-0.345	-0.035
00:00:07.948	-0.430	-0.025
00:00:07.950	-0.430	-0.015
00:00:07.952	-0.470	-0.005
00:00:07.954	-0.400	0.000
00:00:07.956	-0.610	0.000
00:00:07.958	-0.710	-0.005
00:00:07.960	-0.615	-0.010
00:00:07.962	-0.510	-0.020
00:00:07.964	-0.465	-0.030
00:00:07.966	-0.420	-0.035
00:00:07.968	-0.450	-0.040
00:00:07.970	-0.405	-0.045
00:00:07.972	-0.540	-0.045
00:00:07.974	-0.540	-0.045
00:00:07.976	-0.580	-0.040
00:00:07.978	-0.670	-0.035
00:00:07.980	-0.660	-0.025
00:00:07.982	-0.540	-0.020
00:00:07.984	-0.505	-0.020
00:00:07.986	-0.345	-0.020
00:00:07.988	-0.345	-0.020
00:00:07.990	-0.440	-0.025
00:00:07.992	-0.530	-0.035
00:00:07.994	-0.595	-0.040
00:00:07.996	-0.695	-0.050
00:00:07.998	-0.625	-0.060
00:00:08.000	-0.665	-0.065
00:00:08.002	-0.555	-0.070
00:00:08.004	-0.455	-0.070
00:00:08.006	-0.425	-0.065
00:00:08.008	-0.460	-0.060
00:00:08.010	-0.500	-0.055
00:00:08.012	-0.515	-0.045
00:00:08.014	-0.510	-0.040
00:00:08.016	-0.675	-0.035
00:00:08.018	-0.650	-0.030
00:00:08.020	-0.525	-0.025
00:00:08.022	-0.490	-0.025
00:00:08.024	-0.520	-0.025
00:00:08.026	-0.360	-0.025
00:00:08.028	-0.390	-0.030
00:00:08.030	-0.545	-0.030
00:00:08.032	-0.635	-0.035
00:00:08.034	-0.570	-0.040
00:00:08.036	-0.580	-0.045
00:00:08.038	-0.505	-0.050
00:00:08.040	-0.610	-0.055
00:00:08.042	-0.535	-0.055
00:00:08.044	-0.550	-0.050
00:00:08.046	-0.425	-0.050
00:00:08.048	-0.470	-0.040
00:00:08.050	-0.450	-0.035
00:00:08.052	-0.525	-0.030
00:00:08.054	-0.620	-0.025
00:00:08.056	-0.665	-0.020
00:00:08.058	-0.620	-0.025
00:00:08.060	-0.515	-0.025
00:00:08.062	-0.450	-0.035
00:00:08.064	-0.390	-0.045
00:00:08.066	-0.395	-0.055
00:00:08.068	-0.560	-0.065
00:00:08.070	-0.680	-0.070
00:00:08.072	-0.615	-0.075
00:00:08.074	-0.580	-0.070
00:00:08.076	-0.585	-0.060
00:00:08.078	-0.635	-0.045
00:00:08.080	-0.600	-0.025
00:00:08.082	-0.455	-0.005
00:00:08.084	-0.425	0.010
00:00:08.086	-0.340	0.025
00:00:08.088	-0.375	0.030
00:00:08.090	-0.410	0.020
00:00:08.092	-0.495	0.005
00:00:08.094	-0.575	-0.020
00:00:08.096	-0.665	-0.050
00:00:08.098	-0.785	-0.075
00:00:08.100	-0.630	-0.090
00:00:08.102	-0.555	-0.100
00:00:08.104	-0.490	-0.095
00:00:08.106	-0.405	-0.085
00:00:08.108	-0.420	-0.060
00:00:08.110	-0.495	-0.040
00:00:08.112	-0.510	-0.020
00:00:08.114	-0.560	-0.005
00:00:08.116	-0.595	-0.005
00:00:08.118	-0.660	-0.010
00:00:08.120	-0.585	-0.020
00:00:08.122	-0.445	-0.040
00:00:08.124	-0.515	-0.055
00:00:08.126	-0.455	-0.060
00:00:08.128	-0.395	-0.060
00:00:08.130	-0.415	-0.055
00:00:08.132	-0.455	-0.040
00:00:08.134	-0.630	-0.025
00:00:08.136	-0.660	-0.010
00:00:08.138	-0.620	0.000
00:00:08.140	-0.575	0.005
00:00:08.142	-0.505	0.000
00:00:08.144	-0.385	-0.010
00:00:08.146	-0.395	-0.020
00:00:08.148	-0.410	-0.035
00:00:08.150	-0.470	-0.045
00:00:08.152	-0.550	-0.050
00:00:08.154	-0.680	-0.050
00:00:08.156	-0.685	-0.050
00:00:08.158	-0.640	-0.045
00:00:08.160	-0.480	-0.045
00:00:08.162	-0.520	-0.045
00:00:08.164	-0.485	-0.045
00:00:08.166	-0.425	-0.050
00:00:08.168	-0.405	-0.055
00:00:08.170	-0.530	-0.065
00:00:08.172	-0.620	-0.070
00:00:08.174	-0.645	-0.070
00:00:08.176	-0.665	-0.065
00:00:08.178	-0.625	-0.060
00:00:08.180	-0.615	-0.055
00:00:08.182	-0.465	-0.045
00:00:08.184	-0.450	-0.040
00:00:08.186	-0.400	-0.035
00:00:08.188	-0.355	-0.030
00:00:08.190	-0.470	-0.025
00:00:08.192	-0.655	-0.025
00:00:08.194	-0.630	-0.025
00:00:08.196	-0.605	-0.025
00:00:08.198	-0.615	-0.030
00:00:08.200	-0.560	-0.035
00:00:08.202	-0.455	-0.040
00:00:08.204	-0.440	-0.045
00:00:08.206	-0.465	-0.050
00:00:08.208	-0.485	-0.055
00:00:08.210	-0.500	-0.055
00:00:08.212	-0.515	-0.055
00:00:08.214	-0.620	-0.050
00:00:08.216	-0.700	-0.045
00:00:08.218	-0.685	-0.035
00:00:08.220	-0.550	-0.025
00:00:08.222	-0.415	-0.020
00:00:08.224	-0.255	-0.015
00:00:08.226	-0.375	-0.015
00:00:08.228	-0.495	-0.020
00:00:08.230	-0.555	-0.025
00:00:08.232	-0.585	-0.035
00:00:08.234	-0.635	-0.045
00:00:08.236	-0.575	-0.050
00:00:08.238	-0.655	-0.060
00:00:08.240	-0.620	-0.060
00:00:08.242	-0.510	-0.060
00:00:08.244	-0.390	-0.055
00:00:08.246	-0.425	-0.045
00:00:08.248	-0.470	-0.030
00:00:08.250	-0.570	-0.015
00:00:08.252	-0.525	0.000
00:00:08.254	-0.555	0.010
00:00:08.256	-0.530	0.015
00:00:08.258	-0.495	0.015
00:00:08.260	-0.505	0.010
00:00:08.262	-0.495	-0.005
00:00:08.264	-0.455	-0.025
00:00:08.266	-0.450	-0.045
00:00:08.268	-0.510	-0.065
00:00:08.270	-0.590	-0.080
00:00:08.272	-0.585	-0.095
00:00:08.274	-0.715	-0.095
00:00:08.276	-0.715	-0.090
00:00:08.278	-0.635	-0.080
00:00:08.280	-0.535	-0.060
00:00:08.282	-0.480	-0.045
00:00:08.284	-0.375	-0.025
00:00:08.286	-0.435	-0.015
00:00:08.288	-0.410	-0.010
00:00:08.290	-0.530	-0.015
00:00:08.292	-0.600	-0.020
00:00:08.294	-0.615	-0.030
00:00:08.296	-0.600	-0.040
00:00:08.298	-0.615	-0.050
00:00:08.300	-0.510	-0.055
00:00:08.302	-0.520	-0.055
00:00:08.304	-0.440	-0.050
00:00:08.306	-0.440	-0.040
00:00:08.308	-0.420	-0.035
00:00:08.310	-0.400	-0.030
00:00:08.312	-0.560	-0.030
00:00:08.314	-0.745	-0.035
00:00:08.316	-0.760	-0.040
00:00:08.318	-0.565	-0.045
00:00:08.320	-0.455	-0.055
00:00:08.322	-0.520	-0.055
00:00:08.324	-0.435	-0.055
00:00:08.326	-0.405	-0.050
00:00:08.328	-0.415	-0.040
00:00:08.330	-0.525	-0.030
00:00:08.332	-0.510	-0.020
00:00:08.334	-0.615	-0.015
00:00:08.336	-0.620	-0.010
00:00:08.338	-0.640	-0.015
00:00:08.340	-0.580	-0.020
00:00:08.342	-0.570	-0.025
00:00:08.344	-0.345	-0.035
00:00:08.346	-0.340	-0.035
00:00:08.348	-0.435	-0.040
00:00:08.350	-0.545	-0.035
00:00:08.352	-0.580	-0.035
00:00:08.354	-0.640	-0.030
00:00:08.356	-0.670	-0.030
00:00:08.358	-0.555	-0.030
00:00:08.360	-0.525	-0.035
00:00:08.362	-0.525	-0.035
00:00:08.364	-0.385	-0.035
00:00:08.366	-0.400	-0.035
00:00:08.368	-0.510	-0.025
00:00:08.370	-0.540	-0.015
00:00:08.372	-0.445	0.000
00:00:08.374	-0.605	0.020
00:00:08.376	-0.545	0.030
00:00:08.378	-0.480	0.035
00:00:08.380	-0.425	0.030
00:00:08.382	-0.470	0.015
00:00:08.384	-0.445	-0.010
00:00:08.386	-0.395	-0.040
00:00:08.388	-0.525	-0.065
00:00:08.390	-0.640	-0.090
00:00:08.392	-0.615	-0.110
00:00:08.394	-0.725	-0.115
00:00:08.396	-0.740	-0.115
00:00:08.398	-0.685	-0.105
00:00:08.400	-0.515	-0.090
00:00:08.402	-0.430	-0.070
00:00:08.404	-0.390	-0.050
00:00:08.406	-0.425	-0.035
00:00:08.408	-0.445	-0.020
00:00:08.410	-0.585	-0.015
00:00:08.412	-0.550	-0.010
00:00:08.414	-0.620	-0.010
00:00:08.416	-0.600	-0.015
00:00:08.418	-0.550	-0.020
00:00:08.420	-0.460	-0.030
00:00:08.422	-0.450	-0.040
00:00:08.424	-0.345	-0.050
00:00:08.426	-0.420	-0.060
00:00:08.428	-0.600	-0.065
00:00:08.430	-0.620	-0.060
00:00:08.432	-0.655	-0.055
00:00:08.434	-0.650	-0.045
00:00:08.436	-0.575	-0.035
00:00:08.438	-0.450	-0.020
00:00:08.440	-0.440	-0.010
00:00:08.442	-0.375	-0.005
00:00:08.444	-0.350	-0.005
00:00:08.446	-0.440	-0.015
00:00:08.448	-0.495	-0.030
00:00:08.450	-0.575	-0.045
00:00:08.452	-0.755	-0.060
00:00:08.454	-0.665	-0.070
00:00:08.456	-0.675	-0.075
00:00:08.458	-0.555	-0.070
00:00:08.460	-0.425	-0.065
00:00:08.462	-0.415	-0.050
00:00:08.464	-0.420	-0.035
00:00:08.466	-0.420	-0.025
00:00:08.468	-0.540	-0.010
00:00:08.470	-0.555	-0.005
00:00:08.472	-0.580	-0.005
00:00:08.474	-0.580	-0.010
00:00:08.476	-0.625	-0.015
00:00:08.478	-0.495	-0.020
00:00:08.480	-0.485	-0.025
00:00:08.482	-0.385	-0.030
00:00:08.484	-0.350	-0.025
00:00:08.486	-0.430	-0.020
00:00:08.488	-0.505	-0.015
00:00:08.490	-0.530	-0.005
00:00:08.492	-0.555	0.005
00:00:08.494	-0.600	0.010
00:00:08.496	-0.560	0.010
00:00:08.498	-0.455	0.005
00:00:08.500	-0.395	0.000
00:00:08.502	-0.440	-0.010
00:00:08.504	-0.445	-0.020
00:00:08.506	-0.435	-0.025
00:00:08.508	-0.580	-0.030
00:00:08.510	-0.525	-0.025
00:00:08.512	-0.525	-0.020
00:00:08.514	-0.525	-0.015
00:00:08.516	-0.650	-0.005
00:00:08.518	-0.540	0.005
00:00:08.520	-0.440	0.015
00:00:08.522	-0.310	0.020
00:00:08.524	-0.250	0.020
00:00:08.526	-0.380	0.020
00:00:08.528	-0.475	0.020
00:00:08.530	-0.525	0.020
00:00:08.532	-0.630	0.015
00:00:08.534	-0.640	0.015
00:00:08.536	-0.605	0.015
00:00:08.538	-0.420	0.015
00:00:08.540	-0.390	0.015
00:00:08.542	-0.335	0.010
00:00:08.544	-0.420	0.005
00:00:08.546	-0.425	0.000
00:00:08.548	-0.490	-0.005
00:00:08.550	-0.530	-0.010
00:00:08.552	-0.550	-0.010
00:00:08.554	-0.590	-0.010
00:00:08.556	-0.525	-0.005
00:00:08.558	-0.555	0.000
00:00:08.560	-0.495	0.000
00:00:08.562	-0.335	0.005
00:00:08.564	-0.330	0.005
00:00:08.566	-0.415	0.000
00:00:08.568	-0.425	-0.005
00:00:08.570	-0.540	-0.015
00:00:08.572	-0.715	-0.025
00:00:08.574	-0.645	-0.035
00:00:08.576	-0.570	-0.040
00:00:08.578	-0.450	-0.045
00:00:08.580	-0.570	-0.045
00:00:08.582	-0.350	-0.045
00:00:08.584	-0.380	-0.045
00:00:08.586	-0.385	-0.045
00:00:08.588	-0.535	-0.050
00:00:08.590	-0.680	-0.050
00:00:08.592	-0.705	-0.055
00:00:08.594	-0.655	-0.060
00:00:08.596	-0.620	-0.065
00:00:08.598	-0.510	-0.060
00:00:08.600	-0.485	-0.055
00:00:08.602	-0.330	-0.045
00:00:08.604	-0.370	-0.035
00:00:08.606	-0.420	-0.025
00:00:08.608	-0.500	-0.015
00:00:08.610	-0.615	-0.010
00:00:08.612	-0.655	-0.010
00:00:08.614	-0.630	-0.015
00:00:08.616	-0.575	-0.025
00:00:08.618	-0.525	-0.035
00:00:08.620	-0.460	-0.050
00:00:08.622	-0.345	-0.060
00:00:08.624	-0.435	-0.070
00:00:08.626	-0.515	-0.070
00:00:08.628	-0.610	-0.065
00:00:08.630	-0.590	-0.055
00:00:08.632	-0.705	-0.030
00:00:08.634	-0.625	-0.005
00:00:08.636	-0.470	0.030
00:00:08.638	-0.285	0.075
00:00:08.640	-0.370	0.120
00:00:08.642	-0.085	0.170
00:00:08.644	-0.085	0.225
00:00:08.646	-0.170	0.275
00:00:08.648	-0.225	0.320
00:00:08.650	-0.120	0.355
00:00:08.652	-0.220	0.380
00:00:08.654	-0.215	0.390
00:00:08.656	-0.255	0.375
00:00:08.658	-0.185	0.345
00:00:08.660	-0.015	0.290
00:00:08.662	-0.005	0.225
00:00:08.664	-0.145	0.150
00:00:08.666	-0.345	0.075
00:00:08.668	-0.620	0.005
00:00:08.670	-0.705	-0.050
00:00:08.672	-0.775	-0.085
00:00:08.674	-0.770	-0.100
00:00:08.676	-0.625	-0.095
00:00:08.678	-0.465	-0.080
00:00:08.680	-0.380	-0.055
00:00:08.682	-0.315	-0.035
00:00:08.684	-0.355	-0.015
00:00:08.686	-0.405	-0.005
00:00:08.688	-0.485	-0.005
00:00:08.690	-0.555	-0.010
00:00:08.692	-0.700	-0.015
00:00:08.694	-0.625	-0.030
00:00:08.696	-0.550	-0.035
00:00:08.698	-0.500	-0.045
00:00:08.700	-0.450	-0.045
00:00:08.702	-0.385	-0.045
00:00:08.704	-0.330	-0.045
00:00:08.706	-0.395	-0.045
00:00:08.708	-0.460	-0.045
00:00:08.710	-0.705	-0.045
00:00:08.712	-0.730	-0.050
00:00:08.714	-0.695	-0.050
00:00:08.716	-0.520	-0.055
00:00:08.718	-0.470	-0.055
00:00:08.720	-0.450	-0.050
00:00:08.722	-0.290	-0.045
00:00:08.724	-0.370	-0.035
00:00:08.726	-0.405	-0.025
00:00:08.728	-0.615	-0.015
00:00:08.730	-0.695	-0.005
00:00:08.732	-0.615	0.005
00:00:08.734	-0.500	0.010
00:00:08.736	-0.400	0.010
00:00:08.738	-0.350	0.010
00:00:08.740	-0.405	0.005
00:00:08.742	-0.410	0.000
00:00:08.744	-0.375	-0.005
00:00:08.746	-0.435	-0.010
00:00:08.748	-0.505	-0.010
00:00:08.750	-0.620	-0.010
00:00:08.752	-0.600	-0.010
00:00:08.754	-0.545	-0.005
00:00:08.756	-0.485	0.000
00:00:08.758	-0.470	0.000
00:00:08.760	-0.340	0.000
00:00:08.762	-0.305	0.000
00:00:08.764	-0.375	-0.010
00:00:08.766	-0.440	-0.015
00:00:08.768	-0.450	-0.025
00:00:08.770	-0.645	-0.035
00:00:08.772	-0.710	-0.040
00:00:08.774	-0.670	-0.040
00:00:08.776	-0.520	-0.035
00:00:08.778	-0.350	-0.020
00:00:08.780	-0.330	-0.005
00:00:08.782	-0.315	0.015
00:00:08.784	-0.285	0.030
00:00:08.786	-0.355	0.045
00:00:08.788	-0.435	0.055
00:00:08.790	-0.590	0.060
00:00:08.792	-0.555	0.060
00:00:08.794	-0.455	0.050
00:00:08.796	-0.335	0.040
00:00:08.798	-0.485	0.030
00:00:08.800	-0.310	0.015
00:00:08.802	-0.315	0.010
00:00:08.804	-0.370	0.005
00:00:08.806	-0.435	0.005
00:00:08.808	-0.560	0.005
00:00:08.810	-0.635	0.015
00:00:08.812	-0.540	0.020
00:00:08.814	-0.520	0.025
00:00:08.816	-0.450	0.030
00:00:08.818	-0.345	0.030
00:00:08.820	-0.295	0.025
00:00:08.822	-0.365	0.025
00:00:08.824	-0.405	0.025
00:00:08.826	-0.400	0.025
00:00:08.828	-0.465	0.030
00:00:08.830	-0.500	0.045
00:00:08.832	-0.510	0.060
00:00:08.834	-0.490	0.075
00:00:08.836	-0.380	0.090
00:00:08.838	-0.320	0.105
00:00:08.840	-0.175	0.115
00:00:08.842	-0.255	0.115
00:00:08.844	-0.295	0.115
00:00:08.846	-0.330	0.115
00:00:08.848	-0.415	0.105
00:00:08.850	-0.485	0.105
00:00:08.852	-0.445	0.100
00:00:08.854	-0.395	0.100
00:00:08.856	-0.340	0.100
00:00:08.858	-0.355	0.100
00:00:08.860	-0.245	0.105
00:00:08.862	-0.270	0.105
00:00:08.864	-0.280	0.105
00:00:08.866	-0.340	0.110
00:00:08.868	-0.365	0.120
00:00:08.870	-0.385	0.130
00:00:08.872	-0.435	0.150
00:00:08.874	-0.345	0.175
00:00:08.876	-0.290	0.205
00:00:08.878	-0.165	0.230
00:00:08.880	-0.025	0.255
00:00:08.882	-0.015	0.275
00:00:08.884	-0.160	0.280
00:00:08.886	-0.250	0.275
00:00:08.888	-0.170	0.260
00:00:08.890	-0.250	0.240
00:00:08.892	-0.340	0.215
00:00:08.894	-0.425	0.195
00:00:08.896	-0.340	0.180
00:00:08.898	-0.285	0.175
00:00:08.900	-0.155	0.175
00:00:08.902	-0.095	0.185
00:00:08.904	-0.140	0.195
00:00:08.906	-0.175	0.210
00:00:08.908	-0.215	0.220
00:00:08.910	-0.365	0.225
00:00:08.912	-0.365	0.225
00:00:08.914	-0.325	0.225
00:00:08.916	-0.250	0.220
00:00:08.918	-0.175	0.220
00:00:08.920	-0.085	0.220
00:00:08.922	-0.090	0.220
00:00:08.924	-0.140	0.220
00:00:08.926	-0.265	0.220
00:00:08.928	-0.330	0.215
00:00:08.930	-0.395	0.210
00:00:08.932	-0.315	0.200
00:00:08.934	-0.315	0.185
00:00:08.936	-0.305	0.170
00:00:08.938	-0.255	0.160
00:00:08.940	-0.170	0.155
00:00:08.942	-0.160	0.150
00:00:08.944	-0.260	0.150
00:00:08.946	-0.280	0.150
00:00:08.948	-0.260	0.150
00:00:08.950	-0.385	0.140
00:00:08.952	-0.480	0.125
00:00:08.954	-0.445	0.105
00:00:08.956	-0.405	0.075
00:00:08.958	-0.365	0.040
00:00:08.960	-0.305	0.010
00:00:08.962	-0.375	-0.015
00:00:08.964	-0.390	-0.030
00:00:08.966	-0.440	-0.040
00:00:08.968	-0.465	-0.035
00:00:08.970	-0.580	-0.030
00:00:08.972	-0.570	-0.015
00:00:08.974	-0.520	-0.005
00:00:08.976	-0.505	0.005
00:00:08.978	-0.425	0.010
00:00:08.980	-0.245	0.010
00:00:08.982	-0.215	0.005
00:00:08.984	-0.345	-0.005
00:00:08.986	-0.490	-0.010
00:00:08.988	-0.530	-0.015
00:00:08.990	-0.640	-0.020
00:00:08.992	-0.635	-0.025
00:00:08.994	-0.465	-0.025
00:00:08.996	-0.445	-0.030
00:00:08.998	-0.395	-0.030
00:00:09.000	-0.280	-0.040
00:00:09.002	-0.450	-0.045
00:00:09.004	-0.465	-0.055
00:00:09.006	-0.480	-0.060
00:00:09.008	-0.565	-0.070
00:00:09.010	-0.640	-0.075
00:00:09.012	-0.615	-0.075
00:00:09.014	-0.560	-0.080
00:00:09.016	-0.460	-0.075
00:00:09.018	-0.445	-0.075
00:00:09.020	-0.395	-0.070
00:00:09.022	-0.415	-0.065
00:00:09.024	-0.430	-0.060
00:00:09.026	-0.515	-0.050
00:00:09.028	-0.515	-0.040
00:00:09.030	-0.615	-0.030
00:00:09.032	-0.565	-0.025
00:00:09.034	-0.455	-0.020
00:00:09.036	-0.430	-0.020
00:00:09.038	-0.395	-0.025
00:00:09.040	-0.300	-0.030
00:00:09.042	-0.420	-0.035
00:00:09.044	-0.450	-0.035
00:00:09.046	-0.460	-0.035
00:00:09.048	-0.585	-0.030
00:00:09.050	-0.490	-0.020
00:00:09.052	-0.460	-0.015
00:00:09.054	-0.480	-0.010
00:00:09.056	-0.525	-0.010
00:00:09.058	-0.400	-0.015
00:00:09.060	-0.270	-0.030
00:00:09.062	-0.355	-0.045
00:00:09.064	-0.510	-0.060
00:00:09.066	-0.510	-0.070
00:00:09.068	-0.575	-0.075
00:00:09.070	-0.600	-0.070
00:00:09.072	-0.575	-0.060
00:00:09.074	-0.515	-0.050
00:00:09.076	-0.450	-0.040
00:00:09.078	-0.285	-0.035
00:00:09.080	-0.315	-0.030
00:00:09.082	-0.320	-0.035
00:00:09.084	-0.495	-0.040
00:00:09.086	-0.545	-0.045
00:00:09.088	-0.650	-0.050
00:00:09.090	-0.545	-0.055
00:00:09.092	-0.520	-0.055
00:00:09.094	-0.490	-0.050
00:00:09.096	-0.415	-0.050
00:00:09.098	-0.345	-0.050
00:00:09.100	-0.380	-0.050
00:00:09.102	-0.420	-0.055
00:00:09.104	-0.505	-0.055
00:00:09.106	-0.515	-0.055
00:00:09.108	-0.570	-0.050
00:00:09.110	-0.650	-0.040
00:00:09.112	-0.540	-0.025
00:00:09.114	-0.405	-0.010
00:00:09.116	-0.335	0.010
00:00:09.118	-0.315	0.020
00:00:09.120	-0.255	0.020
00:00:09.122	-0.355	0.015
00:00:09.124	-0.345	0.005
00:00:09.126	-0.410	-0.015
00:00:09.128	-0.620	-0.035
00:00:09.130	-0.605	-0.050
00:00:09.132	-0.555	-0.055
00:00:09.134	-0.485	-0.055
00:00:09.136	-0.445	-0.050
00:00:09.138	-0.310	-0.045
00:00:09.140	-0.285	-0.035
00:00:09.142	-0.360	-0.030
00:00:09.144	-0.430	-0.030
00:00:09.146	-0.435	-0.035
00:00:09.148	-0.640	-0.040
00:00:09.150	-0.635	-0.050
00:00:09.152	-0.505	-0.050
00:00:09.154	-0.450	-0.050
00:00:09.156	-0.440	-0.040
00:00:09.158	-0.365	-0.030
00:00:09.160	-0.275	-0.020
00:00:09.162	-0.325	-0.015
00:00:09.164	-0.385	-0.015
00:00:09.166	-0.440	-0.020
00:00:09.168	-0.595	-0.035
00:00:09.170	-0.600	-0.050
00:00:09.172	-0.570	-0.070
00:00:09.174	-0.545	-0.080
00:00:09.176	-0.480	-0.085
00:00:09.178	-0.345	-0.085
00:00:09.180	-0.335	-0.075
00:00:09.182	-0.405	-0.060
00:00:09.184	-0.450	-0.045
00:00:09.186	-0.460	-0.030
00:00:09.188	-0.565	-0.020
00:00:09.190	-0.555	-0.020
00:00:09.192	-0.485	-0.025
00:00:09.194	-0.365	-0.035
00:00:09.196	-0.420	-0.050
00:00:09.198	-0.370	-0.060
00:00:09.200	-0.385	-0.070
00:00:09.202	-0.405	-0.075
00:00:09.204	-0.465	-0.075
00:00:09.206	-0.540	-0.070
00:00:09.208	-0.635	-0.065
00:00:09.210	-0.565	-0.055
00:00:09.212	-0.515	-0.045
00:00:09.214	-0.405	-0.040
00:00:09.216	-0.340	-0.035
00:00:09.218	-0.320	-0.035
00:00:09.220	-0.375	-0.040
00:00:09.222	-0.360	-0.050
00:00:09.224	-0.505	-0.055
00:00:09.226	-0.580	-0.065
00:00:09.228	-0.695	-0.070
00:00:09.230	-0.590	-0.070
00:00:09.232	-0.495	-0.070
00:00:09.234	-0.355	-0.065
00:00:09.236	-0.285	-0.060
00:00:09.238	-0.250	-0.055
00:00:09.240	-0.345	-0.045
00:00:09.242	-0.475	-0.035
00:00:09.244	-0.585	-0.030
00:00:09.246	-0.515	-0.025
00:00:09.248	-0.495	-0.025
00:00:09.250	-0.505	-0.025
00:00:09.252	-0.425	-0.025
00:00:09.254	-0.410	-0.035
00:00:09.256	-0.360	-0.040
00:00:09.258	-0.335	-0.050
00:00:09.260	-0.430	-0.060
00:00:09.262	-0.425	-0.070
00:00:09.264	-0.510	-0.080
00:00:09.266	-0.525	-0.085
00:00:09.268	-0.610	-0.085
00:00:09.270	-0.530	-0.080
00:00:09.272	-0.540	-0.070
00:00:09.274	-0.475	-0.055
00:00:09.276	-0.345	-0.040
00:00:09.278	-0.250	-0.025
00:00:09.280	-0.315	-0.020
00:00:09.282	-0.405	-0.015
00:00:09.284	-0.495	-0.025
00:00:09.286	-0.500	-0.035
00:00:09.288	-0.480	-0.055
00:00:09.290	-0.500	-0.070
00:00:09.292	-0.585	-0.085
00:00:09.294	-0.545	-0.095
00:00:09.296	-0.450	-0.095
00:00:09.298	-0.450	-0.090
00:00:09.300	-0.300	-0.075
00:00:09.302	-0.280	-0.055
00:00:09.304	-0.420	-0.040
00:00:09.306	-0.475	-0.025
00:00:09.308	-0.585	-0.020
00:00:09.310	-0.615	-0.025
00:00:09.312	-0.460	-0.035
00:00:09.314	-0.390	-0.055
00:00:09.316	-0.380	-0.070
00:00:09.318	-0.360	-0.080
00:00:09.320	-0.415	-0.085
00:00:09.322	-0.440	-0.080
00:00:09.324	-0.545	-0.065
00:00:09.326	-0.515	-0.040
00:00:09.328	-0.395	-0.015
00:00:09.330	-0.450	0.005
00:00:09.332	-0.425	0.025
00:00:09.334	-0.320	0.030
00:00:09.336	-0.290	0.020
00:00:09.338	-0.270	0.005
00:00:09.340	-0.325	-0.025
00:00:09.342	-0.465	-0.055
00:00:09.344	-0.540	-0.085
00:00:09.346	-0.585	-0.110
00:00:09.348	-0.595	-0.120
00:00:09.350	-0.555	-0.125
00:00:09.352	-0.485	-0.115
00:00:09.354	-0.475	-0.100
00:00:09.356	-0.365	-0.080
00:00:09.358	-0.275	-0.060
00:00:09.360	-0.385	-0.045
00:00:09.362	-0.475	-0.035
00:00:09.364	-0.450	-0.030
00:00:09.366	-0.405	-0.030
00:00:09.368	-0.520	-0.035
00:00:09.370	-0.475	-0.040
00:00:09.372	-0.520	-0.045
00:00:09.374	-0.400	-0.045
00:00:09.376	-0.260	-0.045
00:00:09.378	-0.280	-0.045
00:00:09.380	-0.335	-0.045
00:00:09.382	-0.445	-0.045
00:00:09.384	-0.550	-0.045
00:00:09.386	-0.590	-0.045
00:00:09.388	-0.590	-0.050
00:00:09.390	-0.465	-0.050
00:00:09.392	-0.395	-0.045
00:00:09.394	-0.425	-0.045
00:00:09.396	-0.265	-0.045
00:00:09.398	-0.165	-0.040
00:00:09.400	-0.345	-0.040
00:00:09.402	-0.430	-0.045
00:00:09.404	-0.540	-0.050
00:00:09.406	-0.575	-0.055
00:00:09.408	-0.515	-0.060
00:00:09.410	-0.560	-0.065
00:00:09.412	-0.375	-0.065
00:00:09.414	-0.380	-0.060
00:00:09.416	-0.295	-0.055
00:00:09.418	-0.270	-0.055
00:00:09.420	-0.325	-0.055
00:00:09.422	-0.445	-0.060
00:00:09.424	-0.445	-0.065
00:00:09.426	-0.580	-0.070
00:00:09.428	-0.575	-0.080
00:00:09.430	-0.600	-0.080
00:00:09.432	-0.475	-0.075
00:00:09.434	-0.340	-0.060
00:00:09.436	-0.205	-0.040
00:00:09.438	-0.275	-0.015
00:00:09.440	-0.200	0.005
00:00:09.442	-0.315	0.015
00:00:09.444	-0.465	0.020
00:00:09.446	-0.570	0.010
00:00:09.448	-0.540	-0.010
00:00:09.450	-0.455	-0.030
00:00:09.452	-0.430	-0.050
00:00:09.454	-0.325	-0.060
00:00:09.456	-0.235	-0.060
00:00:09.458	-0.325	-0.040
00:00:09.460	-0.315	-0.010
00:00:09.462	-0.340	0.025
00:00:09.464	-0.275	0.055
00:00:09.466	-0.435	0.080
00:00:09.468	-0.465	0.090
00:00:09.470	-0.305	0.085
00:00:09.472	-0.220	0.065
00:00:09.474	-0.385	0.030
00:00:09.476	-0.250	-0.010
00:00:09.478	-0.280	-0.045
00:00:09.480	-0.335	-0.070
00:00:09.482	-0.410	-0.085
00:00:09.484	-0.535	-0.090
00:00:09.486	-0.640	-0.080
00:00:09.488	-0.560	-0.065
00:00:09.490	-0.475	-0.045
00:00:09.492	-0.305	-0.030
00:00:09.494	-0.325	-0.020
00:00:09.496	-0.270	-0.020
00:00:09.498	-0.220	-0.025
00:00:09.500	-0.285	-0.035
00:00:09.502	-0.410	-0.050
00:00:09.504	-0.480	-0.065
00:00:09.506	-0.515	-0.075
00:00:09.508	-0.645	-0.085
00:00:09.510	-0.525	-0.090
00:00:09.512	-0.395	-0.090
00:00:09.514	-0.390	-0.085
00:00:09.516	-0.290	-0.080
00:00:09.518	-0.320	-0.075
00:00:09.520	-0.290	-0.070
00:00:09.522	-0.390	-0.060
00:00:09.524	-0.420	-0.060
00:00:09.526	-0.580	-0.060
00:00:09.528	-0.565	-0.060
00:00:09.530	-0.490	-0.060
00:00:09.532	-0.420	-0.065
00:00:09.534	-0.360	-0.070
00:00:09.536	-0.240	-0.075
00:00:09.538	-0.320	-0.075
00:00:09.540	-0.410	-0.070
00:00:09.542	-0.425	-0.065
00:00:09.544	-0.420	-0.055
00:00:09.546	-0.535	-0.040
00:00:09.548	-0.490	-0.025
00:00:09.550	-0.420	-0.005
00:00:09.552	-0.245	0.010
00:00:09.554	-0.280	0.025
00:00:09.556	-0.130	0.035
00:00:09.558	-0.175	0.045
00:00:09.560	-0.240	0.055
00:00:09.562	-0.400	0.065
00:00:09.564	-0.365	0.085
00:00:09.566	-0.305	0.110
00:00:09.568	-0.250	0.145
00:00:09.570	-0.230	0.190
00:00:09.572	-0.070	0.235
00:00:09.574	0.005	0.285
00:00:09.576	0.210	0.320
00:00:09.578	0.200	0.350
00:00:09.580	0.075	0.355
00:00:09.582	-0.100	0.340
00:00:09.584	-0.140	0.300
00:00:09.586	-0.220	0.240
00:00:09.588	-0.250	0.165
00:00:09.590	-0.330	0.080
00:00:09.592	-0.375	0.000
00:00:09.594	-0.355	-0.070
00:00:09.596	-0.385	-0.120
00:00:09.598	-0.370	-0.150
00:00:09.600	-0.440	-0.155
00:00:09.602	-0.490	-0.135
00:00:09.604	-0.510	-0.110
00:00:09.606	-0.530	-0.070
00:00:09.608	-0.460	-0.035
00:00:09.610	-0.315	-0.010
00:00:09.612	-0.320	0.005
00:00:09.614	-0.230	0.005
00:00:09.616	-0.215	-0.010
00:00:09.618	-0.285	-0.030
00:00:09.620	-0.330	-0.050
00:00:09.622	-0.470	-0.075
00:00:09.624	-0.610	-0.090
00:00:09.626	-0.545	-0.100
00:00:09.628	-0.475	-0.100
00:00:09.630	-0.400	-0.095
00:00:09.632	-0.375	-0.085
00:00:09.634	-0.290	-0.075
00:00:09.636	-0.225	-0.065
00:00:09.638	-0.310	-0.060
00:00:09.640	-0.385	-0.055
00:00:09.642	-0.475	-0.055
00:00:09.644	-0.515	-0.050
00:00:09.646	-0.440	-0.050
00:00:09.648	-0.505	-0.045
00:00:09.650	-0.340	-0.045
00:00:09.652	-0.315	-0.040
00:00:09.654	-0.225	-0.035
00:00:09.656	-0.190	-0.035
00:00:09.658	-0.230	-0.040
00:00:09.660	-0.395	-0.040
00:00:09.662	-0.465	-0.050
00:00:09.664	-0.520	-0.055
00:00:09.666	-0.525	-0.055
00:00:09.668	-0.455	-0.055
00:00:09.670	-0.325	-0.050
00:00:09.672	-0.235	-0.040
00:00:09.674	-0.180	-0.030
00:00:09.676	-0.265	-0.020
00:00:09.678	-0.230	-0.015
00:00:09.680	-0.370	-0.010
00:00:09.682	-0.400	-0.015
00:00:09.684	-0.500	-0.020
00:00:09.686	-0.500	-0.025
00:00:09.688	-0.445	-0.035
00:00:09.690	-0.375	-0.040
00:00:09.692	-0.395	-0.040
00:00:09.694	-0.190	-0.030
00:00:09.696	-0.135	-0.020
00:00:09.698	-0.260	-0.005
00:00:09.700	-0.265	0.010
00:00:09.702	-0.300	0.020
00:00:09.704	-0.425	0.020
00:00:09.706	-0.445	0.020
00:00:09.708	-0.435	0.010
00:00:09.710	-0.340	0.000
00:00:09.712	-0.220	-0.010
00:00:09.714	-0.235	-0.025
00:00:09.716	-0.240	-0.030
00:00:09.718	-0.245	-0.030
00:00:09.720	-0.350	-0.020
00:00:09.722	-0.330	-0.010
00:00:09.724	-0.455	0.005
00:00:09.726	-0.395	0.020
00:00:09.728	-0.420	0.035
00:00:09.730	-0.265	0.045
00:00:09.732	-0.240	0.050
00:00:09.734	-0.125	0.055
00:00:09.736	-0.130	0.055
00:00:09.738	-0.115	0.050
00:00:09.740	-0.160	0.045
00:00:09.742	-0.330	0.035
00:00:09.744	-0.465	0.025
00:00:09.746	-0.490	0.010
00:00:09.748	-0.470	0.000
00:00:09.750	-0.315	-0.005
00:00:09.752	-0.235	-0.005
00:00:09.754	-0.135	0.000
00:00:09.756	-0.150	0.010
00:00:09.758	-0.175	0.025
00:00:09.760	-0.300	0.045
00:00:09.762	-0.290	0.065
00:00:09.764	-0.370	0.080
00:00:09.766	-0.320	0.095
00:00:09.768	-0.255	0.100
00:00:09.770	-0.255	0.100
00:00:09.772	-0.160	0.095
00:00:09.774	-0.125	0.090
00:00:09.776	-0.100	0.090
00:00:09.778	-0.025	0.095
00:00:09.780	-0.190	0.105
00:00:09.782	-0.220	0.120
00:00:09.784	-0.395	0.135
00:00:09.786	-0.285	0.150
00:00:09.788	-0.145	0.155
00:00:09.790	-0.135	0.155
00:00:09.792	-0.110	0.150
00:00:09.794	-0.040	0.145
00:00:09.796	0.010	0.135
00:00:09.798	-0.155	0.130
00:00:09.800	-0.170	0.135
00:00:09.802	-0.175	0.145
00:00:09.804	-0.185	0.165
00:00:09.806	-0.270	0.190
00:00:09.808	-0.145	0.215
00:00:09.810	-0.060	0.240
00:00:09.812	0.000	0.260
00:00:09.814	0.165	0.270
00:00:09.816	0.075	0.275
00:00:09.818	-0.005	0.270
00:00:09.820	-0.010	0.265
00:00:09.822	-0.065	0.255
00:00:09.824	-0.135	0.250
00:00:09.826	-0.210	0.245
00:00:09.828	-0.150	0.240
00:00:09.830	-0.025	0.240
00:00:09.832	0.000	0.235
00:00:09.834	0.110	0.235
00:00:09.836	0.050	0.235
00:00:09.838	-0.050	0.240
00:00:09.840	-0.035	0.240
00:00:09.842	-0.070	0.245
00:00:09.844	-0.165	0.250
00:00:09.846	-0.210	0.250
00:00:09.848	-0.105	0.250
00:00:09.850	0.010	0.240
00:00:09.852	-0.010	0.225
00:00:09.854	0.030	0.200
00:00:09.856	0.065	0.170
00:00:09.858	-0.060	0.135
00:00:09.860	-0.300	0.110
00:00:09.862	-0.355	0.085
00:00:09.864	-0.310	0.075
00:00:09.866	-0.330	0.070
00:00:09.868	-0.225	0.075
00:00:09.870	-0.145	0.090
00:00:09.872	-0.075	0.100
00:00:09.874	0.035	0.110
00:00:09.876	-0.035	0.110
00:00:09.878	-0.205	0.100
00:00:09.880	-0.265	0.080
00:00:09.882	-0.370	0.055
00:00:09.884	-0.395	0.020
00:00:09.886	-0.400	-0.005
00:00:09.888	-0.290	-0.030
00:00:09.890	-0.280	-0.040
00:00:09.892	-0.205	-0.045
00:00:09.894	-0.165	-0.035
00:00:09.896	-0.310	-0.020
00:00:09.898	-0.270	-0.005
00:00:09.900	-0.225	0.010
00:00:09.902	-0.240	0.020
00:00:09.904	-0.365	0.025
00:00:09.906	-0.465	0.015
00:00:09.908	-0.340	0.000
00:00:09.910	-0.190	-0.020
00:00:09.912	-0.250	-0.045
00:00:09.914	-0.260	-0.065
00:00:09.916	-0.270	-0.080
00:00:09.918	-0.285	-0.085
00:00:09.920	-0.345	-0.085
00:00:09.922	-0.435	-0.075
00:00:09.924	-0.460	-0.065
00:00:09.926	-0.450	-0.050
00:00:09.928	-0.325	-0.040
00:00:09.930	-0.235	-0.030
00:00:09.932	-0.150	-0.030
00:00:09.934	-0.160	-0.035
00:00:09.936	-0.245	-0.045
00:00:09.938	-0.370	-0.055
00:00:09.940	-0.435	-0.070
00:00:09.942	-0.450	-0.080
00:00:09.944	-0.395	-0.085
00:00:09.946	-0.405	-0.085
00:00:09.948	-0.405	-0.080
00:00:09.950	-0.300	-0.075
00:00:09.952	-0.225	-0.060
00:00:09.954	-0.215	-0.045
00:00:09.956	-0.180	-0.030
00:00:09.958	-0.245	-0.015
00:00:09.960	-0.390	-0.005
00:00:09.962	-0.460	-0.005
00:00:09.964	-0.345	-0.005
00:00:09.966	-0.330	-0.010
00:00:09.968	-0.250	-0.015
00:00:09.970	-0.235	-0.025
00:00:09.972	-0.220	-0.030
00:00:09.974	-0.165	-0.035
00:00:09.976	-0.295	-0.040
00:00:09.978	-0.275	-0.040
00:00:09.980	-0.275	-0.045
00:00:09.982	-0.440	-0.045
00:00:09.984	-0.480	-0.050
00:00:09.986	-0.410	-0.060
00:00:09.988	-0.315	-0.070
00:00:09.990	-0.260	-0.075
00:00:09.992	-0.170	-0.080
00:00:09.994	-0.265	-0.085
00:00:09.996	-0.275	-0.075
00:00:09.998	-0.355	-0.065
00:00:10.000	-0.355	-0.045
00:00:10.002	-0.385	-0.030
00:00:10.004	-0.435	-0.010
00:00:10.006	-0.305	0.005
00:00:10.008	-0.060	0.010
00:00:10.010	-0.220	0.005
00:00:10.012	-0.205	0.000
00:00:10.014	-0.180	-0.015
00:00:10.016	-0.265	-0.030
00:00:10.018	-0.320	-0.045
00:00:10.020	-0.295	-0.055
00:00:10.022	-0.445	-0.060
00:00:10.024	-0.380	-0.060
00:00:10.026	-0.345	-0.060
00:00:10.028	-0.275	-0.060
00:00:10.030	-0.275	-0.065
00:00:10.032	-0.220	-0.065
00:00:10.034	-0.205	-0.065
00:00:10.036	-0.250	-0.065
00:00:10.038	-0.300	-0.060
00:00:10.040	-0.355	-0.055
00:00:10.042	-0.420	-0.045
00:00:10.044	-0.500	-0.030
00:00:10.046	-0.320	-0.015
00:00:10.048	-0.070	-0.005
00:00:10.050	-0.155	0.005
00:00:10.052	-0.220	0.005
00:00:10.054	-0.185	0.005
00:00:10.056	-0.175	-0.005
00:00:10.058	-0.190	-0.015
00:00:10.060	-0.340	-0.030
00:00:10.062	-0.430	-0.040
00:00:10.064	-0.400	-0.055
00:00:10.066	-0.335	-0.065
00:00:10.068	-0.245	-0.070
00:00:10.070	-0.320	-0.070
00:00:10.072	-0.245	-0.070
00:00:10.074	-0.170	-0.065
00:00:10.076	-0.215	-0.060
00:00:10.078	-0.260	-0.050
00:00:10.080	-0.330	-0.045
00:00:10.082	-0.440	-0.035
00:00:10.084	-0.370	-0.030
00:00:10.086	-0.295	-0.025
00:00:10.088	-0.155	-0.025
00:00:10.090	-0.300	-0.030
00:00:10.092	-0.200	-0.035
00:00:10.094	-0.100	-0.045
00:00:10.096	-0.195	-0.050
00:00:10.098	-0.315	-0.060
00:00:10.100	-0.390	-0.060
00:00:10.102	-0.455	-0.060
00:00:10.104	-0.425	-0.060
00:00:10.106	-0.350	-0.050
00:00:10.108	-0.230	-0.045
00:00:10.110	-0.165	-0.040
00:00:10.112	-0.135	-0.040
00:00:10.114	-0.190	-0.045
00:00:10.116	-0.245	-0.050
00:00:10.118	-0.345	-0.060
00:00:10.120	-0.370	-0.065
00:00:10.122	-0.450	-0.075
00:00:10.124	-0.420	-0.080
00:00:10.126	-0.380	-0.075
00:00:10.128	-0.255	-0.070
00:00:10.130	-0.200	-0.060
00:00:10.132	-0.135	-0.050
00:00:10.134	-0.160	-0.040
00:00:10.136	-0.215	-0.035
00:00:10.138	-0.315	-0.030
00:00:10.140	-0.345	-0.035
00:00:10.142	-0.395	-0.040
00:00:10.144	-0.405	-0.045
00:00:10.146	-0.335	-0.050
00:00:10.148	-0.235	-0.055
00:00:10.150	-0.200	-0.060
00:00:10.152	-0.150	-0.055
00:00:10.154	-0.110	-0.050
00:00:10.156	-0.195	-0.045
00:00:10.158	-0.325	-0.035
00:00:10.160	-0.400	-0.025
00:00:10.162	-0.365	-0.020
00:00:10.164	-0.350	-0.020
00:00:10.166	-0.285	-0.020
00:00:10.168	-0.235	-0.025
00:00:10.170	-0.215	-0.030
00:00:10.172	-0.130	-0.040
00:00:10.174	-0.170	-0.050
00:00:10.176	-0.175	-0.060
00:00:10.178	-0.305	-0.065
00:00:10.180	-0.395	-0.065
00:00:10.182	-0.425	-0.065
00:00:10.184	-0.390	-0.060
00:00:10.186	-0.310	-0.050
00:00:10.188	-0.290	-0.045
00:00:10.190	-0.115	-0.035
00:00:10.192	-0.065	-0.030
00:00:10.194	-0.105	-0.030
00:00:10.196	-0.170	-0.035
00:00:10.198	-0.350	-0.040
00:00:10.200	-0.430	-0.050
00:00:10.202	-0.375	-0.055
00:00:10.204	-0.415	-0.065
00:00:10.206	-0.365	-0.065
00:00:10.208	-0.295	-0.070
00:00:10.210	-0.135	-0.065
00:00:10.212	-0.145	-0.060
00:00:10.214	-0.170	-0.055
00:00:10.216	-0.255	-0.050
00:00:10.218	-0.245	-0.045
00:00:10.220	-0.370	-0.050
00:00:10.222	-0.365	-0.050
00:00:10.224	-0.395	-0.055
00:00:10.226	-0.365	-0.055
00:00:10.228	-0.325	-0.060
00:00:10.230	-0.100	-0.055
00:00:10.232	-0.125	-0.050
00:00:10.234	-0.160	-0.045
00:00:10.236	-0.250	-0.035
00:00:10.238	-0.270	-0.025
00:00:10.240	-0.295	-0.015
00:00:10.242	-0.290	-0.010
00:00:10.244	-0.250	-0.010
00:00:10.246	-0.225	-0.010
00:00:10.248	-0.270	-0.015
00:00:10.250	-0.165	-0.025
00:00:10.252	-0.100	-0.035
00:00:10.254	-0.160	-0.045
00:00:10.256	-0.240	-0.060
00:00:10.258	-0.315	-0.070
00:00:10.260	-0.420	-0.075
00:00:10.262	-0.415	-0.080
00:00:10.264	-0.430	-0.075
00:00:10.266	-0.340	-0.070
00:00:10.268	-0.130	-0.060
00:00:10.270	-0.020	-0.045
00:00:10.272	-0.040	-0.030
00:00:10.274	-0.190	-0.020
00:00:10.276	-0.310	-0.010
00:00:10.278	-0.295	-0.010
00:00:10.280	-0.380	-0.015
00:00:10.282	-0.380	-0.020
00:00:10.284	-0.270	-0.035
00:00:10.286	-0.090	-0.045
00:00:10.288	-0.235	-0.055
00:00:10.290	-0.170	-0.055
00:00:10.292	-0.125	-0.055
00:00:10.294	-0.115	-0.050
00:00:10.296	-0.150	-0.040
00:00:10.298	-0.290	-0.030
00:00:10.300	-0.455	-0.020
00:00:10.302	-0.370	-0.010
00:00:10.304	-0.285	-0.005
00:00:10.306	-0.175	0.000
00:00:10.308	-0.200	0.000
00:00:10.310	0.060	0.000
00:00:10.312	0.000	0.000
00:00:10.314	-0.145	-0.005
00:00:10.316	-0.245	-0.010
00:00:10.318	-0.300	-0.015
00:00:10.320	-0.360	-0.020
00:00:10.322	-0.275	-0.030
00:00:10.324	-0.320	-0.035
00:00:10.326	-0.150	-0.040
00:00:10.328	-0.205	-0.040
00:00:10.330	-0.105	-0.035
00:00:10.332	-0.105	-0.025
00:00:10.334	-0.120	-0.015
00:00:10.336	-0.210	-0.005
00:00:10.338	-0.215	0.005
00:00:10.340	-0.310	0.005
00:00:10.342	-0.220	-0.005
00:00:10.344	-0.335	-0.025
00:00:10.346	-0.310	-0.045
00:00:10.348	-0.270	-0.070
00:00:10.350	-0.135	-0.095
00:00:10.352	-0.140	-0.115
00:00:10.354	-0.220	-0.125
00:00:10.356	-0.355	-0.125
00:00:10.358	-0.380	-0.120
00:00:10.360	-0.455	-0.110
00:00:10.362	-0.385	-0.095
00:00:10.364	-0.345	-0.085
00:00:10.366	-0.280	-0.080
00:00:10.368	-0.215	-0.075
00:00:10.370	-0.105	-0.075
00:00:10.372	-0.080	-0.070
00:00:10.374	-0.195	-0.060
00:00:10.376	-0.200	-0.050
00:00:10.378	-0.310	-0.030
00:00:10.380	-0.435	-0.015
00:00:10.382	-0.245	0.005
00:00:10.384	-0.120	0.015
00:00:10.386	-0.185	0.025
00:00:10.388	-0.155	0.020
00:00:10.390	-0.030	0.010
00:00:10.392	-0.020	-0.005
00:00:10.394	-0.110	-0.020
00:00:10.396	-0.310	-0.035
00:00:10.398	-0.285	-0.045
00:00:10.400	-0.330	-0.050
00:00:10.402	-0.385	-0.045
00:00:10.404	-0.270	-0.025
00:00:10.406	-0.155	0.000
00:00:10.408	-0.055	0.035
00:00:10.410	0.115	0.085
00:00:10.412	0.150	0.140
00:00:10.414	0.085	0.205
00:00:10.416	0.045	0.265
00:00:10.418	0.055	0.325
00:00:10.420	0.055	0.375
00:00:10.422	0.190	0.400
00:00:10.424	0.205	0.400
00:00:10.426	0.235	0.370
00:00:10.428	0.210	0.310
00:00:10.430	0.205	0.225
00:00:10.432	0.090	0.125
00:00:10.434	-0.185	0.025
00:00:10.436	-0.340	-0.060
00:00:10.438	-0.360	-0.130
00:00:10.440	-0.540	-0.170
00:00:10.442	-0.475	-0.185
00:00:10.444	-0.330	-0.175
00:00:10.446	-0.260	-0.145
00:00:10.448	-0.265	-0.110
00:00:10.450	-0.055	-0.080
00:00:10.452	-0.105	-0.060
00:00:10.454	-0.230	-0.050
00:00:10.456	-0.275	-0.055
00:00:10.458	-0.295	-0.070
00:00:10.460	-0.365	-0.085
00:00:10.462	-0.370	-0.095
00:00:10.464	-0.345	-0.100
00:00:10.466	-0.245	-0.090
00:00:10.468	-0.120	-0.075
00:00:10.470	-0.065	-0.055
00:00:10.472	-0.045	-0.030
00:00:10.474	-0.035	-0.010
00:00:10.476	-0.215	0.000
00:00:10.478	-0.320	0.005
00:00:10.480	-0.325	-0.005
00:00:10.482	-0.245	-0.015
00:00:10.484	-0.230	-0.030
00:00:10.486	-0.200	-0.045
00:00:10.488	-0.095	-0.055
00:00:10.490	-0.105	-0.055
00:00:10.492	-0.115	-0.055
00:00:10.494	-0.225	-0.050
00:00:10.496	-0.305	-0.040
00:00:10.498	-0.220	-0.035
00:00:10.500	-0.305	-0.025
00:00:10.502	-0.340	-0.020
00:00:10.504	-0.180	-0.020
00:00:10.506	-0.135	-0.020
00:00:10.508	-0.080	-0.030
00:00:10.510	-0.075	-0.040
00:00:10.512	-0.155	-0.050
00:00:10.514	-0.255	-0.060
00:00:10.516	-0.290	-0.070
00:00:10.518	-0.340	-0.075
00:00:10.520	-0.275	-0.075
00:00:10.522	-0.270	-0.070
00:00:10.524	-0.285	-0.055
00:00:10.526	-0.180	-0.040
00:00:10.528	-0.085	-0.025
00:00:10.530	0.005	-0.005
00:00:10.532	-0.060	0.010
00:00:10.534	-0.045	0.015
00:00:10.536	-0.135	0.020
00:00:10.538	-0.310	0.015
00:00:10.540	-0.300	0.000
00:00:10.542	-0.315	-0.015
00:00:10.544	-0.175	-0.030
00:00:10.546	-0.075	-0.040
00:00:10.548	-0.060	-0.050
00:00:10.550	-0.130	-0.050
00:00:10.552	-0.120	-0.045
00:00:10.554	-0.130	-0.030
00:00:10.556	-0.160	-0.015
00:00:10.558	-0.290	0.000
00:00:10.560	-0.325	0.015
00:00:10.562	-0.185	0.025
00:00:10.564	-0.070	0.030
00:00:10.566	-0.075	0.030
00:00:10.568	-0.030	0.025
00:00:10.570	-0.015	0.020
00:00:10.572	-0.115	0.010
00:00:10.574	-0.205	0.000
00:00:10.576	-0.150	-0.010
00:00:10.578	-0.270	-0.015
00:00:10.580	-0.245	-0.015
00:00:10.582	-0.215	-0.010
00:00:10.584	-0.195	-0.005
00:00:10.586	-0.125	0.010
00:00:10.588	-0.020	0.025
00:00:10.590	0.060	0.040
00:00:10.592	0.105	0.055
00:00:10.594	-0.045	0.070
00:00:10.596	-0.165	0.075
00:00:10.598	-0.185	0.080
00:00:10.600	-0.220	0.080
00:00:10.602	-0.160	0.075
00:00:10.604	-0.090	0.070
00:00:10.606	-0.050	0.060
00:00:10.608	0.045	0.055
00:00:10.610	0.075	0.050
00:00:10.612	0.040	0.055
00:00:10.614	-0.075	0.065
00:00:10.616	-0.125	0.075
00:00:10.618	-0.175	0.090
00:00:10.620	-0.195	0.105
00:00:10.622	-0.085	0.115
00:00:10.624	-0.030	0.120
00:00:10.626	0.010	0.120
00:00:10.628	0.120	0.120
00:00:10.630	0.100	0.115
00:00:10.632	0.090	0.115
00:00:10.634	0.000	0.120
00:00:10.636	-0.055	0.125
00:00:10.638	-0.130	0.140
00:00:10.640	-0.120	0.160
00:00:10.642	-0.025	0.180
00:00:10.644	0.070	0.200
00:00:10.646	0.125	0.215
00:00:10.648	0.305	0.225
00:00:10.650	0.295	0.225
00:00:10.652	0.090	0.225
00:00:10.654	0.030	0.215
00:00:10.656	0.010	0.205
00:00:10.658	-0.055	0.195
00:00:10.660	-0.045	0.190
00:00:10.662	0.030	0.185
00:00:10.664	0.105	0.190
00:00:10.666	0.095	0.190
00:00:10.668	0.130	0.195
00:00:10.670	0.100	0.205
00:00:10.672	0.215	0.210
00:00:10.674	0.185	0.210
00:00:10.676	0.065	0.215
00:00:10.678	-0.090	0.215
00:00:10.680	-0.140	0.220
00:00:10.682	-0.005	0.220
00:00:10.684	0.120	0.225
00:00:10.686	0.200	0.235
00:00:10.688	0.290	0.240
00:00:10.690	0.335	0.245
00:00:10.692	0.270	0.245
00:00:10.694	-0.055	0.240
00:00:10.696	0.025	0.225
00:00:10.698	-0.095	0.210
00:00:10.700	-0.060	0.180
00:00:10.702	-0.010	0.150
00:00:10.704	0.085	0.120
00:00:10.706	0.035	0.090
00:00:10.708	0.065	0.065
00:00:10.710	-0.030	0.045
00:00:10.712	-0.080	0.035
00:00:10.714	-0.115	0.035
00:00:10.716	-0.070	0.040
00:00:10.718	-0.155	0.050
00:00:10.720	-0.175	0.055
00:00:10.722	-0.125	0.055
00:00:10.724	-0.105	0.055
00:00:10.726	-0.030	0.045
00:00:10.728	-0.015	0.025
00:00:10.730	0.100	0.005
00:00:10.732	-0.025	-0.015
00:00:10.734	-0.235	-0.035
00:00:10.736	-0.275	-0.055
00:00:10.738	-0.330	-0.060
00:00:10.740	-0.240	-0.065
00:00:10.742	-0.270	-0.065
00:00:10.744	-0.185	-0.055
00:00:10.746	-0.075	-0.050
00:00:10.748	-0.025	-0.040
00:00:10.750	-0.015	-0.035
00:00:10.752	-0.040	-0.030
00:00:10.754	-0.110	-0.025
00:00:10.756	-0.110	-0.030
00:00:10.758	-0.340	-0.030
00:00:10.760	-0.355	-0.035
00:00:10.762	-0.190	-0.040
00:00:10.764	-0.160	-0.045
00:00:10.766	-0.100	-0.050
00:00:10.768	-0.015	-0.050
00:00:10.770	0.025	-0.050
00:00:10.772	-0.140	-0.050
00:00:10.774	-0.180	-0.050
00:00:10.776	-0.265	-0.050
00:00:10.778	-0.250	-0.050
00:00:10.780	-0.225	-0.050
00:00:10.782	-0.240	-0.055
00:00:10.784	-0.215	-0.060
00:00:10.786	-0.105	-0.070
00:00:10.788	-0.045	-0.070
00:00:10.790	-0.065	-0.070
00:00:10.792	-0.130	-0.070
00:00:10.794	-0.175	-0.060
00:00:10.796	-0.240	-0.045
00:00:10.798	-0.265	-0.035
00:00:10.800	-0.290	-0.020
00:00:10.802	-0.145	-0.015
00:00:10.804	-0.100	-0.015
00:00:10.806	-0.025	-0.025
00:00:10.808	0.050	-0.040
00:00:10.810	-0.065	-0.060
00:00:10.812	-0.195	-0.075
00:00:10.814	-0.245	-0.085
00:00:10.816	-0.320	-0.090
00:00:10.818	-0.285	-0.085
00:00:10.820	-0.270	-0.070
00:00:10.822	-0.160	-0.055
00:00:10.824	-0.120	-0.035
00:00:10.826	0.000	-0.020
00:00:10.828	-0.015	-0.015
00:00:10.830	0.010	-0.015
00:00:10.832	-0.110	-0.020
00:00:10.834	-0.110	-0.025
00:00:10.836	-0.340	-0.035
00:00:10.838	-0.305	-0.040
00:00:10.840	-0.085	-0.045
00:00:10.842	-0.145	-0.045
00:00:10.844	-0.205	-0.040
00:00:10.846	-0.120	-0.030
00:00:10.848	0.035	-0.025
00:00:10.850	0.060	-0.020
00:00:10.852	-0.040	-0.020
00:00:10.854	-0.155	-0.020
00:00:10.856	-0.300	-0.025
00:00:10.858	-0.300	-0.030
00:00:10.860	-0.280	-0.040
00:00:10.862	-0.085	-0.045
00:00:10.864	-0.085	-0.055
00:00:10.866	-0.015	-0.060
00:00:10.868	-0.085	-0.065
00:00:10.870	-0.115	-0.070
00:00:10.872	-0.155	-0.065
00:00:10.874	-0.105	-0.060
00:00:10.876	-0.310	-0.050
00:00:10.878	-0.305	-0.035
00:00:10.880	-0.165	-0.025
00:00:10.882	-0.110	-0.015
00:00:10.884	-0.155	-0.005
00:00:10.886	0.120	0.000
00:00:10.888	0.045	0.000
00:00:10.890	-0.060	-0.005
00:00:10.892	-0.110	-0.015
00:00:10.894	-0.205	-0.025
00:00:10.896	-0.280	-0.035
00:00:10.898	-0.230	-0.040
00:00:10.900	-0.205	-0.045
00:00:10.902	-0.185	-0.045
00:00:10.904	-0.175	-0.045
00:00:10.906	0.050	-0.040
00:00:10.908	0.090	-0.040
00:00:10.910	-0.135	-0.040
00:00:10.912	-0.165	-0.040
00:00:10.914	-0.115	-0.040
00:00:10.916	-0.240	-0.040
00:00:10.918	-0.235	-0.045
00:00:10.920	-0.180	-0.050
00:00:10.922	-0.180	-0.050
00:00:10.924	-0.110	-0.055
00:00:10.926	-0.005	-0.060
00:00:10.928	-0.060	-0.060
00:00:10.930	-0.125	-0.060
00:00:10.932	-0.160	-0.065
00:00:10.934	-0.150	-0.060
00:00:10.936	-0.220	-0.060
00:00:10.938	-0.310	-0.055
00:00:10.940	-0.230	-0.050
00:00:10.942	-0.115	-0.050
00:00:10.944	-0.070	-0.045
00:00:10.946	0.005	-0.045
00:00:10.948	-0.055	-0.045
00:00:10.950	-0.105	-0.045
00:00:10.952	-0.180	-0.050
00:00:10.954	-0.165	-0.055
00:00:10.956	-0.270	-0.055
00:00:10.958	-0.260	-0.055
00:00:10.960	-0.175	-0.055
00:00:10.962	-0.095	-0.050
00:00:10.964	-0.025	-0.040
00:00:10.966	0.050	-0.030
00:00:10.968	0.020	-0.020
00:00:10.970	-0.040	-0.015
00:00:10.972	-0.200	-0.010
00:00:10.974	-0.155	-0.010
00:00:10.976	-0.280	-0.010
00:00:10.978	-0.195	-0.020
00:00:10.980	-0.100	-0.030
00:00:10.982	-0.065	-0.045
00:00:10.984	-0.085	-0.055
00:00:10.986	-0.045	-0.065
00:00:10.988	-0.045	-0.070
00:00:10.990	-0.065	-0.070
00:00:10.992	-0.200	-0.070
00:00:10.994	-0.220	-0.065
00:00:10.996	-0.250	-0.060
00:00:10.998	-0.285	-0.050
00:00:11.000	-0.165	-0.045
00:00:11.002	-0.065	-0.040
00:00:11.004	0.030	-0.040
00:00:11.006	0.015	-0.035
00:00:11.008	-0.070	-0.030
00:00:11.010	-0.080	-0.020
00:00:11.012	-0.115	-0.015
00:00:11.014	-0.170	-0.010
00:00:11.016	-0.135	-0.005
00:00:11.018	-0.160	-0.005
00:00:11.020	-0.110	-0.010
00:00:11.022	-0.110	-0.020
00:00:11.024	-0.030	-0.035
00:00:11.026	-0.025	-0.055
00:00:11.028	-0.100	-0.065
00:00:11.030	-0.170	-0.075
00:00:11.032	-0.205	-0.075
00:00:11.034	-0.170	-0.060
00:00:11.036	-0.275	-0.040
00:00:11.038	-0.190	-0.010
00:00:11.040	0.020	0.025
00:00:11.042	0.025	0.055
00:00:11.044	0.110	0.080
00:00:11.046	0.145	0.095
00:00:11.048	0.055	0.100
00:00:11.050	-0.015	0.090
00:00:11.052	-0.035	0.070
00:00:11.054	0.015	0.040
00:00:11.056	-0.215	0.010
00:00:11.058	-0.275	-0.020
00:00:11.060	-0.115	-0.050
00:00:11.062	-0.100	-0.070
00:00:11.064	-0.135	-0.085
00:00:11.066	-0.070	-0.090
00:00:11.068	-0.055	-0.090
00:00:11.070	-0.135	-0.085
00:00:11.072	-0.185	-0.075
00:00:11.074	-0.245	-0.070
00:00:11.076	-0.175	-0.060
00:00:11.078	-0.270	-0.055
00:00:11.080	-0.230	-0.055
00:00:11.082	-0.095	-0.055
00:00:11.084	0.025	-0.060
00:00:11.086	-0.015	-0.065
00:00:11.088	-0.060	-0.070
00:00:11.090	-0.110	-0.075
00:00:11.092	-0.230	-0.075
00:00:11.094	-0.285	-0.080
00:00:11.096	-0.285	-0.075
00:00:11.098	-0.235	-0.075
00:00:11.100	-0.150	-0.075
00:00:11.102	-0.025	-0.075
00:00:11.104	0.025	-0.080
00:00:11.106	0.005	-0.080
00:00:11.108	-0.145	-0.080
00:00:11.110	-0.235	-0.080
00:00:11.112	-0.210	-0.075
00:00:11.114	-0.270	-0.060
00:00:11.116	-0.255	-0.045
00:00:11.118	-0.180	-0.030
00:00:11.120	-0.020	-0.015
00:00:11.122	-0.010	0.000
00:00:11.124	0.130	0.005
00:00:11.126	0.175	0.005
00:00:11.128	-0.055	-0.005
00:00:11.130	-0.140	-0.015
00:00:11.132	-0.165	-0.025
00:00:11.134	-0.265	-0.030
00:00:11.136	-0.220	-0.025
00:00:11.138	-0.185	-0.010
00:00:11.140	-0.075	0.010
00:00:11.142	-0.030	0.045
00:00:11.144	0.205	0.080
00:00:11.146	0.245	0.120
00:00:11.148	0.320	0.155
00:00:11.150	0.120	0.190
00:00:11.152	0.005	0.215
00:00:11.154	-0.130	0.235
00:00:11.156	-0.025	0.250
00:00:11.158	0.220	0.260
00:00:11.160	0.195	0.255
00:00:11.162	0.270	0.245
00:00:11.164	0.390	0.215
00:00:11.166	0.200	0.175
00:00:11.168	0.215	0.115
00:00:11.170	0.050	0.050
00:00:11.172	-0.280	-0.025
00:00:11.174	-0.470	-0.095
00:00:11.176	-0.395	-0.150
00:00:11.178	-0.285	-0.190
00:00:11.180	-0.300	-0.210
00:00:11.182	-0.180	-0.205
00:00:11.184	-0.045	-0.180
00:00:11.186	-0.075	-0.145
00:00:11.188	-0.025	-0.100
00:00:11.190	-0.200	-0.060
00:00:11.192	-0.165	-0.030
00:00:11.194	-0.210	-0.015
00:00:11.196	-0.175	-0.015
00:00:11.198	-0.225	-0.025
00:00:11.200	-0.145	-0.045
00:00:11.202	-0.065	-0.065
00:00:11.204	0.050	-0.080
00:00:11.206	-0.030	-0.090
00:00:11.208	-0.070	-0.090
00:00:11.210	-0.170	-0.085
00:00:11.212	-0.170	-0.075
00:00:11.214	-0.260	-0.060
00:00:11.216	-0.270	-0.050
00:00:11.218	-0.215	-0.045
00:00:11.220	-0.105	-0.045
00:00:11.222	-0.045	-0.050
00:00:11.224	0.045	-0.060
00:00:11.226	0.010	-0.070
00:00:11.228	-0.040	-0.080
00:00:11.230	-0.140	-0.085
00:00:11.232	-0.200	-0.085
00:00:11.234	-0.340	-0.075
00:00:11.236	-0.300	-0.065
00:00:11.238	-0.215	-0.050
00:00:11.240	-0.040	-0.030
00:00:11.242	0.055	-0.015
00:00:11.244	0.070	0.000
00:00:11.246	0.035	0.010
00:00:11.248	0.075	0.010
00:00:11.250	-0.085	0.000
00:00:11.252	-0.185	-0.010
00:00:11.254	-0.275	-0.025
00:00:11.256	-0.360	-0.035
00:00:11.258	-0.135	-0.045
00:00:11.260	-0.100	-0.055
00:00:11.262	-0.025	-0.055
00:00:11.264	0.105	-0.050
00:00:11.266	0.025	-0.040
00:00:11.268	-0.025	-0.035
00:00:11.270	-0.140	-0.030
00:00:11.272	-0.175	-0.035
00:00:11.274	-0.210	-0.040
00:00:11.276	-0.295	-0.045
00:00:11.278	-0.215	-0.055
00:00:11.280	-0.075	-0.060
00:00:11.282	-0.020	-0.055
00:00:11.284	0.100	-0.050
00:00:11.286	0.090	-0.035
00:00:11.288	0.025	-0.020
00:00:11.290	-0.145	-0.005
00:00:11.292	-0.165	0.005
00:00:11.294	-0.230	0.010
00:00:11.296	-0.245	0.005
00:00:11.298	-0.175	-0.005
00:00:11.300	-0.085	-0.020
00:00:11.302	0.050	-0.035
00:00:11.304	0.160	-0.040
00:00:11.306	0.010	-0.040
00:00:11.308	-0.070	-0.030
00:00:11.310	-0.135	-0.010
00:00:11.312	-0.080	0.010
00:00:11.314	-0.185	0.035
00:00:11.316	-0.205	0.050
00:00:11.318	-0.075	0.060
00:00:11.320	0.025	0.055
00:00:11.322	0.085	0.045
00:00:11.324	0.115	0.025
00:00:11.326	0.070	0.010
00:00:11.328	-0.025	0.000
00:00:11.330	-0.120	0.000
00:00:11.332	-0.150	0.010
00:00:11.334	-0.230	0.035
00:00:11.336	-0.155	0.065
00:00:11.338	0.040	0.095
00:00:11.340	0.130	0.120
00:00:11.342	0.235	0.135
00:00:11.344	0.250	0.140
00:00:11.346	0.205	0.135
00:00:11.348	0.020	0.125
00:00:11.350	-0.050	0.110
00:00:11.352	-0.045	0.095
00:00:11.354	-0.035	0.080
00:00:11.356	-0.145	0.080
00:00:11.358	-0.040	0.080
00:00:11.360	0.115	0.085
00:00:11.362	0.220	0.090
00:00:11.364	0.255	0.090
00:00:11.366	0.115	0.095
00:00:11.368	0.045	0.090
00:00:11.370	-0.090	0.090
00:00:11.372	-0.120	0.090
00:00:11.374	-0.095	0.090
00:00:11.376	-0.040	0.100
00:00:11.378	0.100	0.115
00:00:11.380	0.165	0.140
00:00:11.382	0.205	0.165
00:00:11.384	0.230	0.195
00:00:11.386	0.280	0.220
00:00:11.388	0.245	0.240
00:00:11.390	0.175	0.255
00:00:11.392	0.105	0.260
00:00:11.394	0.020	0.260
00:00:11.396	0.070	0.250
00:00:11.398	0.185	0.245
00:00:11.400	0.235	0.235
00:00:11.402	0.325	0.230
00:00:11.404	0.305	0.230
00:00:11.406	0.275	0.230
00:00:11.408	0.200	0.230
00:00:11.410	0.110	0.230
00:00:11.412	0.055	0.230
00:00:11.414	0.110	0.230
00:00:11.416	0.005	0.225
00:00:11.418	0.185	0.220
00:00:11.420	0.235	0.215
00:00:11.422	0.190	0.205
00:00:11.424	0.235	0.195
00:00:11.426	0.310	0.185
00:00:11.428	0.065	0.175
00:00:11.430	0.105	0.160
00:00:11.432	0.035	0.145
00:00:11.434	-0.110	0.135
00:00:11.436	-0.035	0.120
00:00:11.438	0.010	0.105
00:00:11.440	0.025	0.085
00:00:11.442	0.145	0.075
00:00:11.444	0.115	0.060
00:00:11.446	0.065	0.045
00:00:11.448	0.010	0.035
00:00:11.450	-0.050	0.025
00:00:11.452	-0.190	0.010
00:00:11.454	-0.125	0.000
00:00:11.456	-0.050	-0.010
00:00:11.458	-0.095	-0.015
00:00:11.460	-0.155	-0.020
00:00:11.462	-0.020	-0.025
00:00:11.464	0.045	-0.030
00:00:11.466	0.020	-0.030
00:00:11.468	-0.090	-0.030
00:00:11.470	-0.120	-0.035
00:00:11.472	-0.205	-0.040
00:00:11.474	-0.180	-0.045
00:00:11.476	-0.140	-0.050
00:00:11.478	-0.075	-0.055
00:00:11.480	-0.110	-0.060
00:00:11.482	-0.015	-0.055
00:00:11.484	-0.045	-0.050
00:00:11.486	-0.120	-0.040
00:00:11.488	-0.025	-0.030
00:00:11.490	-0.095	-0.020
00:00:11.492	-0.205	-0.015
00:00:11.494	-0.115	-0.015
00:00:11.496	-0.145	-0.025
00:00:11.498	-0.130	-0.040
00:00:11.500	-0.080	-0.065
00:00:11.502	-0.060	-0.090
00:00:11.504	-0.155	-0.115
00:00:11.506	-0.190	-0.135
00:00:11.508	-0.155	-0.145
00:00:11.510	-0.165	-0.145
00:00:11.512	-0.265	-0.135
00:00:11.514	-0.235	-0.115
00:00:11.516	-0.185	-0.090
00:00:11.518	-0.065	-0.060
00:00:11.520	-0.115	-0.030
00:00:11.522	-0.030	-0.015
00:00:11.524	-0.035	-0.005
00:00:11.526	0.065	-0.010
00:00:11.528	-0.025	-0.025
00:00:11.530	-0.090	-0.050
00:00:11.532	-0.290	-0.075
00:00:11.534	-0.275	-0.100
00:00:11.536	-0.275	-0.120
00:00:11.538	-0.160	-0.125
00:00:11.540	-0.165	-0.125
00:00:11.542	-0.055	-0.115
00:00:11.544	-0.065	-0.095
00:00:11.546	-0.060	-0.080
00:00:11.548	-0.120	-0.065
00:00:11.550	-0.150	-0.055
00:00:11.552	-0.165	-0.050
00:00:11.554	-0.215	-0.050
00:00:11.556	-0.175	-0.060
00:00:11.558	-0.095	-0.065
00:00:11.560	-0.025	-0.065
00:00:11.562	0.055	-0.060
00:00:11.564	-0.080	-0.055
00:00:11.566	-0.085	-0.040
00:00:11.568	-0.080	-0.025
00:00:11.570	-0.035	-0.015
00:00:11.572	-0.135	-0.010
00:00:11.574	-0.220	-0.015
00:00:11.576	-0.165	-0.025
00:00:11.578	-0.115	-0.045
00:00:11.580	-0.030	-0.065
00:00:11.582	-0.050	-0.085
00:00:11.584	-0.035	-0.095
00:00:11.586	-0.140	-0.100
00:00:11.588	-0.120	-0.095
00:00:11.590	-0.210	-0.080
00:00:11.592	-0.250	-0.060
00:00:11.594	-0.210	-0.040
00:00:11.596	-0.040	-0.025
00:00:11.598	-0.025	-0.020
00:00:11.600	-0.065	-0.020
00:00:11.602	0.020	-0.030
00:00:11.604	-0.010	-0.050
00:00:11.606	-0.140	-0.075
00:00:11.608	-0.160	-0.095
00:00:11.610	-0.185	-0.105
00:00:11.612	-0.290	-0.110
00:00:11.614	-0.285	-0.105
00:00:11.616	-0.185	-0.090
00:00:11.618	-0.065	-0.070
00:00:11.620	-0.065	-0.050
00:00:11.622	0.005	-0.030
00:00:11.624	0.055	-0.020
00:00:11.626	-0.005	-0.015
00:00:11.628	-0.055	-0.015
00:00:11.630	-0.195	-0.020
00:00:11.632	-0.210	-0.035
00:00:11.634	-0.145	-0.050
00:00:11.636	-0.080	-0.060
00:00:11.638	-0.145	-0.070
00:00:11.640	-0.100	-0.080
00:00:11.642	-0.010	-0.085
00:00:11.644	-0.065	-0.085
00:00:11.646	-0.090	-0.085
00:00:11.648	-0.165	-0.080
00:00:11.650	-0.200	-0.075
00:00:11.652	-0.190	-0.065
00:00:11.654	-0.250	-0.055
00:00:11.656	-0.145	-0.040
00:00:11.658	-0.035	-0.030
00:00:11.660	0.075	-0.015
00:00:11.662	0.040	-0.005
00:00:11.664	0.070	0.000
00:00:11.666	-0.025	0.000
00:00:11.668	-0.135	-0.010
00:00:11.670	-0.210	-0.020
00:00:11.672	-0.185	-0.030
00:00:11.674	-0.270	-0.040
00:00:11.676	-0.155	-0.050
00:00:11.678	0.000	-0.055
00:00:11.680	0.055	-0.065
00:00:11.682	0.020	-0.070
00:00:11.684	-0.065	-0.075
00:00:11.686	-0.160	-0.085
00:00:11.688	-0.260	-0.100
00:00:11.690	-0.365	-0.115
00:00:11.692	-0.285	-0.125
00:00:11.694	-0.265	-0.135
00:00:11.696	-0.155	-0.130
00:00:11.698	-0.140	-0.120
00:00:11.700	-0.060	-0.095
00:00:11.702	-0.005	-0.065
00:00:11.704	0.080	-0.035
00:00:11.706	0.035	-0.010
00:00:11.708	-0.075	0.010
00:00:11.710	-0.235	0.015
00:00:11.712	-0.300	0.010
00:00:11.714	-0.155	-0.010
00:00:11.716	-0.095	-0.030
00:00:11.718	-0.040	-0.055
00:00:11.720	0.035	-0.080
00:00:11.722	-0.090	-0.090
00:00:11.724	-0.115	-0.095
00:00:11.726	-0.115	-0.095
00:00:11.728	-0.130	-0.085
00:00:11.730	-0.240	-0.075
00:00:11.732	-0.200	-0.070
00:00:11.734	-0.250	-0.065
00:00:11.736	-0.200	-0.070
00:00:11.738	-0.105	-0.070
00:00:11.740	0.010	-0.070
00:00:11.742	-0.020	-0.070
00:00:11.744	-0.055	-0.060
00:00:11.746	-0.095	-0.050
00:00:11.748	-0.050	-0.030
00:00:11.750	-0.160	-0.015
00:00:11.752	-0.160	-0.005
00:00:11.754	-0.220	0.000
00:00:11.756	-0.095	-0.005
00:00:11.758	-0.025	-0.010
00:00:11.760	0.090	-0.025
00:00:11.762	-0.020	-0.035
00:00:11.764	-0.060	-0.040
00:00:11.766	-0.120	-0.040
00:00:11.768	-0.050	-0.030
00:00:11.770	-0.150	-0.020
00:00:11.772	-0.185	0.000
00:00:11.774	-0.230	0.015
00:00:11.776	-0.070	0.025
00:00:11.778	0.040	0.030
00:00:11.780	0.120	0.025
00:00:11.782	0.040	0.020
00:00:11.784	0.040	0.010
00:00:11.786	0.020	0.000
00:00:11.788	-0.010	-0.005
00:00:11.790	-0.220	-0.005
00:00:11.792	-0.270	-0.005
00:00:11.794	-0.170	0.000
00:00:11.796	-0.015	0.005
00:00:11.798	-0.055	0.005
00:00:11.800	0.095	0.000
00:00:11.802	0.050	-0.005
00:00:11.804	0.035	-0.020
00:00:11.806	-0.160	-0.030
00:00:11.808	-0.105	-0.045
00:00:11.810	-0.250	-0.055
00:00:11.812	-0.235	-0.065
00:00:11.814	-0.235	-0.065
00:00:11.816	-0.160	-0.070
00:00:11.818	-0.120	-0.065
00:00:11.820	0.040	-0.065
00:00:11.822	0.040	-0.060
00:00:11.824	-0.030	-0.055
00:00:11.826	-0.135	-0.055
00:00:11.828	-0.215	-0.050
00:00:11.830	-0.290	-0.055
00:00:11.832	-0.220	-0.055
00:00:11.834	-0.160	-0.060
00:00:11.836	-0.100	-0.065
00:00:11.838	-0.015	-0.070
00:00:11.840	-0.025	-0.075
00:00:11.842	-0.055	-0.075
00:00:11.844	-0.120	-0.070
00:00:11.846	-0.125	-0.065
00:00:11.848	-0.205	-0.055
00:00:11.850	-0.320	-0.040
00:00:11.852	-0.190	-0.025
00:00:11.854	-0.075	-0.010
00:00:11.856	-0.010	-0.005
00:00:11.858	0.070	-0.005
00:00:11.860	0.075	-0.010
00:00:11.862	0.010	-0.025
00:00:11.864	-0.130	-0.040
00:00:11.866	-0.195	-0.060
00:00:11.868	-0.210	-0.075
00:00:11.870	-0.220	-0.085
00:00:11.872	-0.320	-0.090
00:00:11.874	-0.185	-0.085
00:00:11.876	-0.015	-0.070
00:00:11.878	0.020	-0.050
00:00:11.880	0.025	-0.025
00:00:11.882	-0.005	0.000
00:00:11.884	-0.070	0.025
00:00:11.886	-0.090	0.050
00:00:11.888	-0.010	0.075
00:00:11.890	-0.050	0.105
00:00:11.892	0.025	0.135
00:00:11.894	0.075	0.165
00:00:11.896	0.180	0.205
00:00:11.898	0.235	0.245
00:00:11.900	0.330	0.285
00:00:11.902	0.385	0.315
00:00:11.904	0.335	0.335
00:00:11.906	0.305	0.340
00:00:11.908	0.260	0.325
00:00:11.910	0.105	0.290
00:00:11.912	0.115	0.230
00:00:11.914	0.060	0.160
00:00:11.916	0.005	0.085
00:00:11.918	-0.065	0.010
00:00:11.920	-0.125	-0.055
00:00:11.922	-0.105	-0.105
00:00:11.924	-0.145	-0.135
00:00:11.926	-0.220	-0.145
00:00:11.928	-0.260	-0.135
00:00:11.930	-0.225	-0.115
00:00:11.932	-0.230	-0.090
00:00:11.934	-0.230	-0.070
00:00:11.936	-0.150	-0.055
00:00:11.938	-0.045	-0.050
00:00:11.940	0.050	-0.055
00:00:11.942	-0.050	-0.065
00:00:11.944	-0.070	-0.080
00:00:11.946	-0.110	-0.085
00:00:11.948	-0.265	-0.085
00:00:11.950	-0.330	-0.080
00:00:11.952	-0.250	-0.065
00:00:11.954	-0.130	-0.045
00:00:11.956	-0.030	-0.025
00:00:11.958	0.035	-0.010
00:00:11.960	0.060	-0.005
00:00:11.962	0.030	-0.010
00:00:11.964	-0.095	-0.025
00:00:11.966	-0.150	-0.045
00:00:11.968	-0.270	-0.060
00:00:11.970	-0.285	-0.070
00:00:11.972	-0.200	-0.075
00:00:11.974	-0.115	-0.065
00:00:11.976	-0.065	-0.050
00:00:11.978	0.020	-0.030
00:00:11.980	0.060	-0.010
00:00:11.982	0.025	0.010
00:00:11.984	-0.140	0.015
00:00:11.986	-0.100	0.015
00:00:11.988	-0.055	0.005
00:00:11.990	-0.170	-0.010
00:00:11.992	-0.235	-0.035
00:00:11.994	-0.200	-0.055
00:00:11.996	-0.170	-0.070
00:00:11.998	-0.050	-0.075
00:00:12.000	-0.030	-0.075
00:00:12.002	-0.015	-0.065
00:00:12.004	-0.055	-0.045
00:00:12.006	-0.135	-0.025
00:00:12.008	-0.220	-0.005
00:00:12.010	-0.140	0.010
00:00:12.012	-0.155	0.025
00:00:12.014	-0.100	0.030
00:00:12.016	-0.065	0.030
00:00:12.018	0.140	0.025
00:00:12.020	0.095	0.015
00:00:12.022	-0.045	0.000
00:00:12.024	-0.070	-0.010
00:00:12.026	-0.080	-0.020
00:00:12.028	-0.205	-0.030
00:00:12.030	-0.255	-0.040
00:00:12.032	-0.215	-0.050
00:00:12.034	-0.195	-0.055
00:00:12.036	-0.135	-0.065
00:00:12.038	0.065	-0.065
00:00:12.040	-0.070	-0.065
00:00:12.042	-0.045	-0.055
00:00:12.044	-0.065	-0.040
00:00:12.046	-0.080	-0.020
00:00:12.048	-0.185	0.005
00:00:12.050	-0.155	0.035
00:00:12.052	-0.120	0.060
00:00:12.054	0.015	0.085
00:00:12.056	0.065	0.100
00:00:12.058	0.185	0.105
00:00:12.060	0.095	0.100
00:00:12.062	0.075	0.085
00:00:12.064	0.025	0.065
00:00:12.066	-0.080	0.040
00:00:12.068	-0.255	0.020
00:00:12.070	-0.215	0.000
00:00:12.072	-0.160	-0.015
00:00:12.074	-0.045	-0.015
00:00:12.076	-0.040	-0.005
00:00:12.078	0.080	0.010
00:00:12.080	0.085	0.030
00:00:12.082	0.080	0.055
00:00:12.084	0.055	0.075
00:00:12.086	-0.010	0.095
00:00:12.088	-0.175	0.110
00:00:12.090	-0.080	0.115
00:00:12.092	-0.015	0.110
00:00:12.094	0.045	0.100
00:00:12.096	0.055	0.090
00:00:12.098	0.155	0.075
00:00:12.100	0.020	0.065
00:00:12.102	0.045	0.065
00:00:12.104	0.010	0.070
00:00:12.106	0.050	0.080
00:00:12.108	-0.120	0.095
00:00:12.110	-0.150	0.115
00:00:12.112	0.015	0.135
00:00:12.114	0.185	0.150
00:00:12.116	0.065	0.160
00:00:12.118	0.175	0.165
00:00:12.120	0.225	0.165
00:00:12.122	0.160	0.165
00:00:12.124	0.065	0.170
00:00:12.126	0.055	0.175
00:00:12.128	-0.045	0.185
00:00:12.130	-0.025	0.200
00:00:12.132	0.070	0.215
00:00:12.134	0.210	0.225
00:00:12.136	0.255	0.235
00:00:12.138	0.280	0.235
00:00:12.140	0.220	0.230
00:00:12.142	0.180	0.225
00:00:12.144	0.040	0.215
00:00:12.146	0.070	0.210
00:00:12.148	0.025	0.210
00:00:12.150	0.040	0.215
00:00:12.152	0.100	0.230
00:00:12.154	0.250	0.250
00:00:12.156	0.265	0.265
00:00:12.158	0.315	0.275
00:00:12.160	0.280	0.280
00:00:12.162	0.215	0.270
00:00:12.164	0.140	0.255
00:00:12.166	0.010	0.235
00:00:12.168	-0.065	0.215
00:00:12.170	-0.050	0.195
00:00:12.172	0.085	0.180
00:00:12.174	0.200	0.170
00:00:12.176	0.170	0.165
00:00:12.178	0.270	0.160
00:00:12.180	0.170	0.160
00:00:12.182	0.115	0.150
00:00:12.184	-0.035	0.140
00:00:12.186	-0.095	0.125
00:00:12.188	-0.110	0.105
00:00:12.190	-0.060	0.080
00:00:12.192	-0.040	0.060
00:00:12.194	-0.020	0.040
00:00:12.196	-0.015	0.025
00:00:12.198	0.010	0.015
00:00:12.200	0.060	0.010
00:00:12.202	-0.010	0.000
00:00:12.204	-0.085	-0.005
00:00:12.206	-0.235	-0.010
00:00:12.208	-0.285	-0.020
00:00:12.210	-0.275	-0.025
00:00:12.212	-0.200	-0.030
00:00:12.214	-0.035	-0.030
00:00:12.216	0.005	-0.025
00:00:12.218	-0.015	-0.020
00:00:12.220	0.090	-0.010
00:00:12.222	-0.060	0.000
00:00:12.224	-0.155	0.005
00:00:12.226	-0.215	0.005
00:00:12.228	-0.270	0.000
00:00:12.230	-0.210	-0.010
00:00:12.232	-0.130	-0.025
00:00:12.234	-0.060	-0.040
00:00:12.236	-0.065	-0.055
00:00:12.238	-0.020	-0.070
00:00:12.240	-0.080	-0.075
00:00:12.242	-0.140	-0.080
00:00:12.244	-0.260	-0.075
00:00:12.246	-0.200	-0.070
00:00:12.248	-0.290	-0.060
00:00:12.250	-0.315	-0.050
00:00:12.252	-0.230	-0.045
00:00:12.254	-0.030	-0.040
00:00:12.256	0.040	-0.040
00:00:12.258	0.025	-0.035
00:00:12.260	0.015	-0.035
00:00:12.262	-0.185	-0.035
00:00:12.264	-0.230	-0.030
00:00:12.266	-0.255	-0.025
00:00:12.268	-0.180	-0.025
00:00:12.270	-0.155	-0.025
00:00:12.272	-0.065	-0.025
00:00:12.274	-0.115	-0.035
00:00:12.276	-0.060	-0.045
00:00:12.278	-0.030	-0.055
00:00:12.280	-0.065	-0.070
00:00:12.282	-0.135	-0.090
00:00:12.284	-0.315	-0.105
00:00:12.286	-0.360	-0.115
00:00:12.288	-0.325	-0.125
00:00:12.290	-0.240	-0.125
00:00:12.292	-0.080	-0.120
00:00:12.294	-0.190	-0.115
00:00:12.296	-0.155	-0.100
00:00:12.298	-0.125	-0.090
00:00:12.300	-0.055	-0.075
00:00:12.302	-0.105	-0.060
00:00:12.304	-0.195	-0.050
00:00:12.306	-0.220	-0.040
00:00:12.308	-0.240	-0.035
00:00:12.310	-0.245	-0.030
00:00:12.312	-0.125	-0.030
00:00:12.314	-0.140	-0.030
00:00:12.316	-0.025	-0.030
00:00:12.318	-0.025	-0.030
00:00:12.320	-0.055	-0.030
00:00:12.322	-0.150	-0.035
00:00:12.324	-0.095	-0.035
00:00:12.326	-0.250	-0.035
00:00:12.328	-0.290	-0.035
00:00:12.330	-0.270	-0.035
00:00:12.332	-0.230	-0.035
00:00:12.334	-0.100	-0.035
00:00:12.336	0.055	-0.030
00:00:12.338	0.035	-0.025
00:00:12.340	-0.040	-0.020
00:00:12.342	-0.085	-0.015
00:00:12.344	-0.135	-0.005
00:00:12.346	-0.245	0.000
00:00:12.348	-0.260	0.000
00:00:12.350	-0.110	0.005
00:00:12.352	-0.105	0.000
00:00:12.354	-0.145	-0.005
00:00:12.356	0.015	-0.010
00:00:12.358	0.075	-0.020
00:00:12.360	-0.085	-0.030
00:00:12.362	-0.180	-0.045
00:00:12.364	-0.135	-0.060
00:00:12.366	-0.325	-0.080
00:00:12.368	-0.350	-0.095
00:00:12.370	-0.320	-0.110
00:00:12.372	-0.260	-0.120
00:00:12.374	-0.205	-0.125
00:00:12.376	-0.105	-0.120
00:00:12.378	-0.110	-0.115
00:00:12.380	-0.095	-0.100
00:00:12.382	-0.160	-0.080
00:00:12.384	-0.215	-0.055
00:00:12.386	-0.235	-0.035
00:00:12.388	-0.195	-0.020
00:00:12.390	-0.190	-0.010
00:00:12.392	-0.100	0.000
00:00:12.394	-0.095	0.000
00:00:12.396	-0.005	-0.005
00:00:12.398	-0.015	-0.010
00:00:12.400	-0.050	-0.015
00:00:12.402	-0.150	-0.020
00:00:12.404	-0.225	-0.025
00:00:12.406	-0.255	-0.030
00:00:12.408	-0.215	-0.035
00:00:12.410	-0.210	-0.040
00:00:12.412	-0.155	-0.045
00:00:12.414	-0.105	-0.050
00:00:12.416	-0.045	-0.055
00:00:12.418	-0.090	-0.060
00:00:12.420	-0.150	-0.060
00:00:12.422	-0.240	-0.060
00:00:12.424	-0.165	-0.050
00:00:12.426	-0.295	-0.040
00:00:12.428	-0.295	-0.030
00:00:12.430	-0.140	-0.015
00:00:12.432	-0.040	-0.005
00:00:12.434	-0.025	0.000
00:00:12.436	0.040	0.000
00:00:12.438	-0.005	0.000
00:00:12.440	-0.105	-0.010
00:00:12.442	-0.235	-0.020
00:00:12.444	-0.240	-0.030
00:00:12.446	-0.345	-0.040
00:00:12.448	-0.175	-0.050
00:00:12.450	-0.125	-0.055
00:00:12.452	-0.135	-0.055
00:00:12.454	-0.185	-0.055
00:00:12.456	-0.055	-0.055
00:00:12.458	-0.095	-0.055
00:00:12.460	-0.175	-0.055
00:00:12.462	-0.155	-0.055
00:00:12.464	-0.215	-0.060
00:00:12.466	-0.310	-0.060
00:00:12.468	-0.310	-0.065
00:00:12.470	-0.230	-0.065
00:00:12.472	-0.160	-0.065
00:00:12.474	-0.150	-0.065
00:00:12.476	-0.025	-0.060
00:00:12.478	0.005	-0.055
00:00:12.480	-0.160	-0.050
00:00:12.482	-0.155	-0.050
00:00:12.484	-0.160	-0.050
00:00:12.486	-0.340	-0.060
00:00:12.488	-0.355	-0.070
00:00:12.490	-0.250	-0.080
00:00:12.492	-0.170	-0.090
00:00:12.494	-0.090	-0.095
00:00:12.496	-0.070	-0.090
00:00:12.498	-0.095	-0.080
00:00:12.500	-0.170	-0.060
00:00:12.502	-0.220	-0.040
00:00:12.504	-0.190	-0.015
00:00:12.506	-0.255	0.005
00:00:12.508	-0.180	0.020
00:00:12.510	-0.125	0.025
00:00:12.512	-0.035	0.020
00:00:12.514	0.040	0.010
00:00:12.516	0.090	-0.010
00:00:12.518	-0.090	-0.030
00:00:12.520	-0.175	-0.045
00:00:12.522	-0.235	-0.060
00:00:12.524	-0.300	-0.065
00:00:12.526	-0.330	-0.070
00:00:12.528	-0.280	-0.065
00:00:12.530	-0.170	-0.065
00:00:12.532	-0.115	-0.060
00:00:12.534	-0.050	-0.055
00:00:12.536	-0.070	-0.050
00:00:12.538	-0.035	-0.040
00:00:12.540	-0.085	-0.035
00:00:12.542	-0.160	-0.020
00:00:12.544	-0.260	-0.010
00:00:12.546	-0.315	0.000
00:00:12.548	-0.260	0.015
00:00:12.550	-0.090	0.020
00:00:12.552	-0.005	0.020
00:00:12.554	0.120	0.020
00:00:12.556	0.005	0.015
00:00:12.558	-0.075	0.005
00:00:12.560	-0.140	0.000
00:00:12.562	-0.160	-0.005
00:00:12.564	-0.195	-0.005
00:00:12.566	-0.235	-0.005
00:00:12.568	-0.270	-0.005
00:00:12.570	-0.110	-0.005
00:00:12.572	-0.105	-0.010
00:00:12.574	-0.040	-0.020
00:00:12.576	0.030	-0.035
00:00:12.578	-0.125	-0.055
00:00:12.580	-0.160	-0.070
00:00:12.582	-0.210	-0.075
00:00:12.584	-0.340	-0.075
00:00:12.586	-0.250	-0.065
00:00:12.588	-0.305	-0.050
00:00:12.590	-0.220	-0.025
00:00:12.592	-0.080	0.000
00:00:12.594	0.070	0.020
00:00:12.596	0.080	0.030
00:00:12.598	-0.015	0.030
00:00:12.600	-0.160	0.015
00:00:12.602	-0.125	-0.010
00:00:12.604	-0.240	-0.040
00:00:12.606	-0.365	-0.070
00:00:12.608	-0.350	-0.095
00:00:12.610	-0.240	-0.115
00:00:12.612	-0.315	-0.120
00:00:12.614	-0.180	-0.115
00:00:12.616	-0.025	-0.100
00:00:12.618	-0.040	-0.085
00:00:12.620	-0.085	-0.070
00:00:12.622	-0.170	-0.060
00:00:12.624	-0.390	-0.050
00:00:12.626	-0.335	-0.050
00:00:12.628	-0.230	-0.055
00:00:12.630	-0.240	-0.060
00:00:12.632	-0.190	-0.065
00:00:12.634	-0.120	-0.070
00:00:12.636	-0.085	-0.065
00:00:12.638	-0.105	-0.060
00:00:12.640	-0.180	-0.050
00:00:12.642	-0.195	-0.040
00:00:12.644	-0.290	-0.030
00:00:12.646	-0.215	-0.025
00:00:12.648	-0.190	-0.025
00:00:12.650	-0.205	-0.020
00:00:12.652	-0.165	-0.020
00:00:12.654	-0.025	-0.015
00:00:12.656	-0.060	0.000
00:00:12.658	-0.050	0.020
00:00:12.660	-0.130	0.045
00:00:12.662	-0.050	0.080
00:00:12.664	-0.040	0.120
00:00:12.666	0.000	0.165
00:00:12.668	0.060	0.205
00:00:12.670	0.110	0.245
00:00:12.672	0.180	0.285
00:00:12.674	0.345	0.315
00:00:12.676	0.295	0.335
00:00:12.678	0.215	0.345
00:00:12.680	0.140	0.335
00:00:12.682	0.180	0.315
00:00:12.684	0.065	0.275
00:00:12.686	0.080	0.220
00:00:12.688	-0.015	0.155
00:00:12.690	-0.030	0.085
00:00:12.692	-0.135	0.015
00:00:12.694	-0.115	-0.050
00:00:12.696	-0.230	-0.095
00:00:12.698	-0.240	-0.130
00:00:12.700	-0.305	-0.140
00:00:12.702	-0.315	-0.135
00:00:12.704	-0.350	-0.120
00:00:12.706	-0.255	-0.095
00:00:12.708	-0.225	-0.075
00:00:12.710	-0.170	-0.055
00:00:12.712	-0.095	-0.040
00:00:12.714	-0.100	-0.040
00:00:12.716	-0.070	-0.040
00:00:12.718	-0.175	-0.050
00:00:12.720	-0.205	-0.060
00:00:12.722	-0.205	-0.070
00:00:12.724	-0.335	-0.080
00:00:12.726	-0.355	-0.085
00:00:12.728	-0.280	-0.085
00:00:12.730	-0.150	-0.085
00:00:12.732	-0.065	-0.080
00:00:12.734	-0.125	-0.075
00:00:12.736	-0.120	-0.065
00:00:12.738	-0.145	-0.055
00:00:12.740	-0.220	-0.045
00:00:12.742	-0.195	-0.035
00:00:12.744	-0.300	-0.025
00:00:12.746	-0.350	-0.020
00:00:12.748	-0.185	-0.020
00:00:12.750	-0.040	-0.025
00:00:12.752	-0.015	-0.030
00:00:12.754	-0.085	-0.035
00:00:12.756	-0.080	-0.045
00:00:12.758	-0.215	-0.050
00:00:12.760	-0.395	-0.055
00:00:12.762	-0.200	-0.050
00:00:12.764	-0.230	-0.045
00:00:12.766	-0.260	-0.040
00:00:12.768	-0.215	-0.030
00:00:12.770	-0.130	-0.020
00:00:12.772	-0.050	-0.020
00:00:12.774	-0.080	-0.020
00:00:12.776	-0.105	-0.025
00:00:12.778	-0.165	-0.030
00:00:12.780	-0.145	-0.035
00:00:12.782	-0.215	-0.040
00:00:12.784	-0.340	-0.040
00:00:12.786	-0.295	-0.035
00:00:12.788	-0.195	-0.030
00:00:12.790	-0.135	-0.025
00:00:12.792	-0.095	-0.020
00:00:12.794	-0.070	-0.015
00:00:12.796	-0.020	-0.015
00:00:12.798	-0.135	-0.020
00:00:12.800	-0.190	-0.025
00:00:12.802	-0.220	-0.025
00:00:12.804	-0.225	-0.030
00:00:12.806	-0.285	-0.025
00:00:12.808	-0.210	-0.015
00:00:12.810	-0.105	0.000
00:00:12.812	0.005	0.015
00:00:12.814	-0.005	0.030
00:00:12.816	0.035	0.040
00:00:12.818	-0.030	0.050
00:00:12.820	-0.190	0.045
00:00:12.822	-0.230	0.035
00:00:12.824	-0.250	0.020
00:00:12.826	-0.240	0.000
00:00:12.828	-0.240	-0.020
00:00:12.830	-0.115	-0.035
00:00:12.832	-0.025	-0.045
00:00:12.834	-0.085	-0.040
00:00:12.836	-0.045	-0.030
00:00:12.838	-0.130	-0.010
00:00:12.840	-0.195	0.010
00:00:12.842	-0.250	0.030
00:00:12.844	-0.165	0.050
00:00:12.846	-0.160	0.060
00:00:12.848	-0.070	0.060
00:00:12.850	0.020	0.055
00:00:12.852	-0.030	0.050
00:00:12.854	-0.005	0.040
00:00:12.856	0.030	0.035
00:00:12.858	-0.095	0.035
00:00:12.860	-0.195	0.040
00:00:12.862	-0.215	0.050
00:00:12.864	-0.190	0.065
00:00:12.866	-0.130	0.080
00:00:12.868	-0.010	0.095
00:00:12.870	0.020	0.110
00:00:12.872	0.120	0.120
00:00:12.874	0.140	0.125
00:00:12.876	0.125	0.130
00:00:12.878	-0.020	0.130
00:00:12.880	-0.100	0.130
00:00:12.882	-0.200	0.130
00:00:12.884	-0.140	0.125
00:00:12.886	-0.110	0.125
00:00:12.888	-0.030	0.125
00:00:12.890	0.085	0.125
00:00:12.892	0.225	0.125
00:00:12.894	0.090	0.130
00:00:12.896	0.090	0.135
00:00:12.898	-0.090	0.145
00:00:12.900	-0.065	0.160
00:00:12.902	-0.110	0.175
00:00:12.904	0.000	0.195
00:00:12.906	0.010	0.210
00:00:12.908	0.055	0.220
00:00:12.910	0.160	0.230
00:00:12.912	0.190	0.235
00:00:12.914	0.085	0.240
00:00:12.916	0.220	0.235
00:00:12.918	0.185	0.235
00:00:12.920	0.170	0.230
00:00:12.922	-0.140	0.225
00:00:12.924	-0.105	0.225
00:00:12.926	0.000	0.220
00:00:12.928	0.130	0.215
00:00:12.930	0.145	0.215
00:00:12.932	0.200	0.215
00:00:12.934	0.175	0.215
00:00:12.936	0.105	0.215
00:00:12.938	0.055	0.220
00:00:12.940	-0.025	0.225
00:00:12.942	-0.095	0.225
00:00:12.944	-0.010	0.230
00:00:12.946	0.035	0.225
00:00:12.948	0.155	0.220
00:00:12.950	0.145	0.205
00:00:12.952	0.115	0.185
00:00:12.954	0.060	0.160
00:00:12.956	0.015	0.135
00:00:12.958	-0.080	0.110
00:00:12.960	-0.050	0.090
00:00:12.962	-0.185	0.075
00:00:12.964	-0.240	0.070
00:00:12.966	-0.130	0.070
00:00:12.968	-0.055	0.075
00:00:12.970	-0.095	0.075
00:00:12.972	0.040	0.075
00:00:12.974	0.025	0.070
00:00:12.976	0.055	0.055
00:00:12.978	-0.120	0.030
00:00:12.980	-0.140	0.005
00:00:12.982	-0.355	-0.020
00:00:12.984	-0.360	-0.045
00:00:12.986	-0.295	-0.060
00:00:12.988	-0.205	-0.070
00:00:12.990	-0.190	-0.070
00:00:12.992	-0.090	-0.065
00:00:12.994	-0.030	-0.055
00:00:12.996	-0.095	-0.040
00:00:12.998	-0.155	-0.035
00:00:13.000	-0.220	-0.030
00:00:13.002	-0.365	-0.030
00:00:13.004	-0.310	-0.040
00:00:13.006	-0.275	-0.045
00:00:13.008	-0.170	-0.055
00:00:13.010	-0.195	-0.065
00:00:13.012	-0.090	-0.070
00:00:13.014	-0.130	-0.070
00:00:13.016	-0.180	-0.070
00:00:13.018	-0.215	-0.065
00:00:13.020	-0.165	-0.065
00:00:13.022	-0.380	-0.060
00:00:13.024	-0.365	-0.055
00:00:13.026	-0.245	-0.055
00:00:13.028	-0.160	-0.060
00:00:13.030	-0.180	-0.060
00:00:13.032	-0.075	-0.060
00:00:13.034	-0.065	-0.060
00:00:13.036	-0.145	-0.055
00:00:13.038	-0.190	-0.055
00:00:13.040	-0.230	-0.050
00:00:13.042	-0.375	-0.045
00:00:13.044	-0.425	-0.045
00:00:13.046	-0.270	-0.045
00:00:13.048	-0.115	-0.050
00:00:13.050	-0.090	-0.055
00:00:13.052	-0.030	-0.065
00:00:13.054	-0.140	-0.070
00:00:13.056	-0.235	-0.075
00:00:13.058	-0.235	-0.075
00:00:13.060	-0.340	-0.075
00:00:13.062	-0.410	-0.070
00:00:13.064	-0.385	-0.065
00:00:13.066	-0.195	-0.055
00:00:13.068	-0.145	-0.050
00:00:13.070	-0.095	-0.040
00:00:13.072	-0.080	-0.035
00:00:13.074	-0.100	-0.035
00:00:13.076	-0.120	-0.035
00:00:13.078	-0.205	-0.035
00:00:13.080	-0.315	-0.040
00:00:13.082	-0.370	-0.050
00:00:13.084	-0.370	-0.055
00:00:13.086	-0.320	-0.065
00:00:13.088	-0.185	-0.075
00:00:13.090	-0.090	-0.080
00:00:13.092	-0.095	-0.080
00:00:13.094	-0.140	-0.075
00:00:13.096	-0.145	-0.065
00:00:13.098	-0.195	-0.055
00:00:13.100	-0.350	-0.040
00:00:13.102	-0.300	-0.030
00:00:13.104	-0.285	-0.020
00:00:13.106	-0.205	-0.020
00:00:13.108	-0.155	-0.025
00:00:13.110	-0.100	-0.035
00:00:13.112	-0.095	-0.050
00:00:13.114	-0.085	-0.065
00:00:13.116	-0.255	-0.075
00:00:13.118	-0.260	-0.075
00:00:13.120	-0.320	-0.065
00:00:13.122	-0.330	-0.055
00:00:13.124	-0.295	-0.035
00:00:13.126	-0.180	-0.020
00:00:13.128	-0.135	-0.015
00:00:13.130	-0.080	-0.015
00:00:13.132	0.035	-0.025
00:00:13.134	-0.055	-0.050
00:00:13.136	-0.280	-0.075
00:00:13.138	-0.350	-0.100
00:00:13.140	-0.395	-0.120
00:00:13.142	-0.390	-0.125
00:00:13.144	-0.445	-0.120
00:00:13.146	-0.205	-0.105
00:00:13.148	-0.135	-0.080
00:00:13.150	-0.125	-0.050
00:00:13.152	-0.130	-0.025
00:00:13.154	-0.045	-0.005
00:00:13.156	-0.150	0.005
00:00:13.158	-0.240	0.005
00:00:13.160	-0.310	-0.005
00:00:13.162	-0.265	-0.020
00:00:13.164	-0.255	-0.040
00:00:13.166	-0.295	-0.055
00:00:13.168	-0.255	-0.065
00:00:13.170	-0.070	-0.070
00:00:13.172	-0.110	-0.075
00:00:13.174	-0.080	-0.070
00:00:13.176	-0.230	-0.070
00:00:13.178	-0.295	-0.065
00:00:13.180	-0.390	-0.060
00:00:13.182	-0.320	-0.055
00:00:13.184	-0.265	-0.055
00:00:13.186	-0.230	-0.050
00:00:13.188	-0.160	-0.050
00:00:13.190	-0.045	-0.050
00:00:13.192	-0.085	-0.055
00:00:13.194	-0.195	-0.060
00:00:13.196	-0.240	-0.060
00:00:13.198	-0.240	-0.065
00:00:13.200	-0.380	-0.070
00:00:13.202	-0.340	-0.070
00:00:13.204	-0.285	-0.065
00:00:13.206	-0.150	-0.055
00:00:13.208	-0.180	-0.050
00:00:13.210	-0.110	-0.040
00:00:13.212	-0.085	-0.035
00:00:13.214	-0.070	-0.035
00:00:13.216	-0.125	-0.045
00:00:13.218	-0.265	-0.060
00:00:13.220	-0.430	-0.075
00:00:13.222	-0.395	-0.095
00:00:13.224	-0.350	-0.110
00:00:13.226	-0.340	-0.115
00:00:13.228	-0.370	-0.115
00:00:13.230	-0.095	-0.100
00:00:13.232	-0.080	-0.075
00:00:13.234	-0.050	-0.050
00:00:13.236	-0.125	-0.025
00:00:13.238	-0.165	-0.005
00:00:13.240	-0.325	0.005
00:00:13.242	-0.335	0.000
00:00:13.244	-0.330	-0.015
00:00:13.246	-0.160	-0.035
00:00:13.248	-0.185	-0.065
00:00:13.250	-0.185	-0.090
00:00:13.252	-0.140	-0.115
00:00:13.254	-0.180	-0.125
00:00:13.256	-0.285	-0.130
00:00:13.258	-0.420	-0.120
00:00:13.260	-0.425	-0.110
00:00:13.262	-0.385	-0.090
00:00:13.264	-0.265	-0.075
00:00:13.266	-0.165	-0.060
00:00:13.268	-0.145	-0.050
00:00:13.270	-0.055	-0.050
00:00:13.272	-0.125	-0.055
00:00:13.274	-0.165	-0.060
00:00:13.276	-0.240	-0.065
00:00:13.278	-0.335	-0.070
00:00:13.280	-0.430	-0.070
00:00:13.282	-0.320	-0.065
00:00:13.284	-0.200	-0.055
00:00:13.286	-0.250	-0.045
00:00:13.288	-0.135	-0.035
00:00:13.290	-0.115	-0.030
00:00:13.292	-0.035	-0.025
00:00:13.294	-0.075	-0.030
00:00:13.296	-0.235	-0.040
00:00:13.298	-0.245	-0.050
00:00:13.300	-0.395	-0.060
00:00:13.302	-0.390	-0.070
00:00:13.304	-0.340	-0.070
00:00:13.306	-0.240	-0.065
00:00:13.308	-0.145	-0.055
00:00:13.310	-0.015	-0.040
00:00:13.312	0.005	-0.025
00:00:13.314	-0.080	-0.010
00:00:13.316	-0.240	-0.005
00:00:13.318	-0.265	-0.005
00:00:13.320	-0.360	-0.010
00:00:13.322	-0.395	-0.020
00:00:13.324	-0.230	-0.030
00:00:13.326	-0.175	-0.040
00:00:13.328	-0.195	-0.040
00:00:13.330	-0.055	-0.035
00:00:13.332	-0.040	-0.020
00:00:13.334	-0.080	0.005
00:00:13.336	-0.100	0.030
00:00:13.338	-0.115	0.050
00:00:13.340	-0.215	0.060
00:00:13.342	-0.290	0.055
00:00:13.344	-0.220	0.040
00:00:13.346	-0.205	0.015
00:00:13.348	-0.230	-0.020
00:00:13.350	-0.120	-0.055
00:00:13.352	-0.070	-0.080
00:00:13.354	-0.105	-0.095
00:00:13.356	-0.245	-0.100
00:00:13.358	-0.310	-0.095
00:00:13.360	-0.375	-0.080
00:00:13.362	-0.400	-0.060
00:00:13.364	-0.320	-0.045
00:00:13.366	-0.220	-0.035
00:00:13.368	-0.175	-0.040
00:00:13.370	-0.030	-0.050
00:00:13.372	-0.040	-0.060
00:00:13.374	-0.200	-0.080
00:00:13.376	-0.260	-0.090
00:00:13.378	-0.345	-0.095
00:00:13.380	-0.390	-0.090
00:00:13.382	-0.495	-0.075
00:00:13.384	-0.270	-0.060
00:00:13.386	-0.105	-0.040
00:00:13.388	-0.135	-0.030
00:00:13.390	-0.045	-0.025
00:00:13.392	-0.090	-0.035
00:00:13.394	-0.195	-0.050
00:00:13.396	-0.275	-0.075
00:00:13.398	-0.370	-0.095
00:00:13.400	-0.440	-0.115
00:00:13.402	-0.415	-0.120
00:00:13.404	-0.395	-0.115
00:00:13.406	-0.315	-0.095
00:00:13.408	-0.120	-0.060
00:00:13.410	-0.015	-0.020
00:00:13.412	-0.010	0.015
00:00:13.414	-0.120	0.045
00:00:13.416	-0.105	0.055
00:00:13.418	-0.210	0.050
00:00:13.420	-0.305	0.025
00:00:13.422	-0.325	-0.010
00:00:13.424	-0.310	-0.050
00:00:13.426	-0.270	-0.085
00:00:13.428	-0.280	-0.110
00:00:13.430	-0.195	-0.120
00:00:13.432	-0.175	-0.105
00:00:13.434	-0.150	-0.070
00:00:13.436	-0.235	-0.020
00:00:13.438	-0.200	0.035
00:00:13.440	-0.175	0.090
00:00:13.442	-0.115	0.145
00:00:13.444	-0.015	0.185
00:00:13.446	0.020	0.220
00:00:13.448	0.110	0.245
00:00:13.450	0.225	0.265
00:00:13.452	0.310	0.285
00:00:13.454	0.170	0.295
00:00:13.456	0.120	0.300
00:00:13.458	0.020	0.295
00:00:13.460	-0.045	0.270
00:00:13.462	0.005	0.230
00:00:13.464	0.015	0.170
00:00:13.466	-0.150	0.095
00:00:13.468	-0.090	0.010
00:00:13.470	-0.230	-0.065
00:00:13.472	-0.295	-0.130
00:00:13.474	-0.340	-0.170
00:00:13.476	-0.355	-0.185
00:00:13.478	-0.450	-0.170
00:00:13.480	-0.380	-0.140
00:00:13.482	-0.380	-0.100
00:00:13.484	-0.255	-0.060
00:00:13.486	-0.215	-0.030
00:00:13.488	-0.085	-0.020
00:00:13.490	-0.085	-0.025
00:00:13.492	-0.170	-0.040
00:00:13.494	-0.205	-0.060
00:00:13.496	-0.210	-0.085
00:00:13.498	-0.410	-0.095
00:00:13.500	-0.430	-0.095
00:00:13.502	-0.435	-0.085
00:00:13.504	-0.235	-0.070
00:00:13.506	-0.195	-0.050
00:00:13.508	-0.090	-0.035
00:00:13.510	-0.080	-0.025
00:00:13.512	-0.145	-0.025
00:00:13.514	-0.230	-0.035
00:00:13.516	-0.285	-0.050
00:00:13.518	-0.375	-0.060
00:00:13.520	-0.345	-0.065
00:00:13.522	-0.340	-0.065
00:00:13.524	-0.250	-0.060
00:00:13.526	-0.270	-0.050
00:00:13.528	-0.030	-0.040
00:00:13.530	-0.045	-0.035
00:00:13.532	-0.190	-0.040
00:00:13.534	-0.305	-0.045
00:00:13.536	-0.335	-0.060
00:00:13.538	-0.355	-0.070
00:00:13.540	-0.345	-0.080
00:00:13.542	-0.295	-0.080
00:00:13.544	-0.270	-0.070
00:00:13.546	-0.270	-0.055
00:00:13.548	-0.060	-0.030
00:00:13.550	-0.110	0.000
00:00:13.552	-0.130	0.025
00:00:13.554	-0.135	0.045
00:00:13.556	-0.150	0.060
00:00:13.558	-0.190	0.065
00:00:13.560	-0.160	0.055
00:00:13.562	-0.075	0.040
00:00:13.564	-0.220	0.015
00:00:13.566	-0.340	-0.010
00:00:13.568	-0.150	-0.040
00:00:13.570	-0.085	-0.065
00:00:13.572	-0.255	-0.090
00:00:13.574	-0.255	-0.100
00:00:13.576	-0.310	-0.105
00:00:13.578	-0.440	-0.100
00:00:13.580	-0.380	-0.080
00:00:13.582	-0.320	-0.055
00:00:13.584	-0.210	-0.020
00:00:13.586	-0.110	0.015
00:00:13.588	0.105	0.045
00:00:13.590	-0.065	0.065
00:00:13.592	-0.115	0.070
00:00:13.594	-0.085	0.070
00:00:13.596	-0.250	0.050
00:00:13.598	-0.305	0.030
00:00:13.600	-0.280	0.005
00:00:13.602	-0.270	-0.020
00:00:13.604	-0.240	-0.035
00:00:13.606	-0.180	-0.035
00:00:13.608	-0.085	-0.030
00:00:13.610	-0.060	-0.015
00:00:13.612	-0.120	0.005
00:00:13.614	-0.185	0.025
00:00:13.616	-0.225	0.045
00:00:13.618	-0.270	0.060
00:00:13.620	-0.205	0.065
00:00:13.622	-0.195	0.065
00:00:13.624	-0.090	0.065
00:00:13.626	-0.050	0.060
00:00:13.628	-0.105	0.060
00:00:13.630	-0.045	0.065
00:00:13.632	-0.120	0.075
00:00:13.634	-0.110	0.085
00:00:13.636	-0.055	0.100
00:00:13.638	-0.095	0.115
00:00:13.640	-0.285	0.125
00:00:13.642	-0.140	0.125
00:00:13.644	-0.015	0.120
00:00:13.646	-0.065	0.110
00:00:13.648	-0.060	0.100
00:00:13.650	0.030	0.085
00:00:13.652	-0.015	0.075
00:00:13.654	-0.175	0.070
00:00:13.656	-0.220	0.075
00:00:13.658	-0.245	0.080
00:00:13.660	-0.190	0.095
00:00:13.662	-0.150	0.105
00:00:13.664	-0.105	0.120
00:00:13.666	0.005	0.130
00:00:13.668	0.090	0.135
00:00:13.670	0.115	0.140
00:00:13.672	-0.040	0.140
00:00:13.674	-0.135	0.140
00:00:13.676	-0.065	0.145
00:00:13.678	-0.190	0.155
00:00:13.680	-0.190	0.165
00:00:13.682	-0.085	0.180
00:00:13.684	0.110	0.195
00:00:13.686	0.090	0.210
00:00:13.688	0.105	0.220
00:00:13.690	0.140	0.225
00:00:13.692	0.120	0.230
00:00:13.694	-0.020	0.230
00:00:13.696	-0.080	0.230
