00:00:03.528	-0.065	-0.020
00:00:03.530	-0.130	-0.005
00:00:03.532	-0.200	0.000
00:00:03.534	-0.220	0.005
00:00:03.536	-0.105	0.010
00:00:03.538	0.015	0.010
00:00:03.540	0.030	0.010
00:00:03.542	0.045	0.005
00:00:03.544	-0.020	0.005
00:00:03.546	-0.050	0.000
00:00:03.548	-0.030	0.000
00:00:03.550	-0.105	0.005
00:00:03.552	-0.140	0.005
00:00:03.554	-0.090	0.010
00:00:03.556	-0.120	0.015
00:00:03.558	-0.050	0.015
00:00:03.560	0.050	0.015
00:00:03.562	0.055	0.015
00:00:03.564	0.015	0.015
00:00:03.566	-0.015	0.015
00:00:03.568	-0.080	0.010
00:00:03.570	-0.145	0.010
00:00:03.572	-0.115	0.015
00:00:03.574	-0.175	0.015
00:00:03.576	-0.065	0.020
00:00:03.578	0.000	0.025
00:00:03.580	0.005	0.030
00:00:03.582	0.120	0.035
00:00:03.584	0.030	0.040
00:00:03.586	0.025	0.040
00:00:03.588	-0.005	0.040
00:00:03.590	-0.110	0.040
00:00:03.592	-0.130	0.040
00:00:03.594	-0.065	0.040
00:00:03.596	-0.010	0.040
00:00:03.598	0.005	0.040
00:00:03.600	0.055	0.045
00:00:03.602	0.150	0.045
00:00:03.604	0.085	0.050
00:00:03.606	-0.140	0.055
00:00:03.608	-0.055	0.060
00:00:03.610	-0.075	0.065
00:00:03.612	-0.025	0.075
00:00:03.614	0.060	0.080
00:00:03.616	0.070	0.090
00:00:03.618	0.135	0.100
00:00:03.620	0.040	0.110
00:00:03.622	0.065	0.115
00:00:03.624	0.070	0.120
00:00:03.626	0.135	0.130
00:00:03.628	0.105	0.135
00:00:03.630	0.085	0.140
00:00:03.632	0.000	0.145
00:00:03.634	0.050	0.150
00:00:03.636	0.105	0.155
00:00:03.638	0.145	0.165
00:00:03.640	0.190	0.170
00:00:03.642	0.190	0.180
00:00:03.644	0.120	0.190
00:00:03.646	0.135	0.200
00:00:03.648	0.085	0.210
00:00:03.650	0.140	0.220
00:00:03.652	0.135	0.225
00:00:03.654	0.110	0.230
00:00:03.656	0.175	0.235
00:00:03.658	0.215	0.235
00:00:03.660	0.205	0.235
00:00:03.662	0.215	0.235
00:00:03.664	0.245	0.235
00:00:03.666	0.210	0.235
00:00:03.668	0.115	0.235
00:00:03.670	0.100	0.240
00:00:03.672	0.175	0.245
00:00:03.674	0.240	0.250
00:00:03.676	0.155	0.255
00:00:03.678	0.245	0.255
00:00:03.680	0.180	0.255
00:00:03.682	0.210	0.255
00:00:03.684	0.295	0.250
00:00:03.686	0.365	0.240
00:00:03.688	0.115	0.235
00:00:03.690	0.050	0.225
00:00:03.692	0.060	0.215
00:00:03.694	0.075	0.205
00:00:03.696	0.105	0.195
00:00:03.698	0.140	0.185
00:00:03.700	0.195	0.175
00:00:03.702	0.175	0.160
00:00:03.704	0.135	0.145
00:00:03.706	0.070	0.130
00:00:03.708	0.010	0.120
00:00:03.710	-0.055	0.105
00:00:03.712	-0.030	0.095
00:00:03.714	-0.045	0.085
00:00:03.716	-0.015	0.075
00:00:03.718	0.110	0.065
00:00:03.720	0.065	0.055
00:00:03.722	0.040	0.040
00:00:03.724	-0.010	0.025
00:00:03.726	-0.110	0.005
00:00:03.728	-0.105	-0.020
00:00:03.730	-0.200	-0.040
00:00:03.732	-0.140	-0.055
00:00:03.734	-0.065	-0.070
00:00:03.736	-0.125	-0.075
00:00:03.738	-0.200	-0.075
00:00:03.740	-0.080	-0.070
00:00:03.742	-0.005	-0.060
00:00:03.744	-0.090	-0.050
00:00:03.746	-0.075	-0.035
00:00:03.748	-0.070	-0.025
00:00:03.750	-0.055	-0.020
00:00:03.752	-0.185	-0.015
00:00:03.754	-0.170	-0.015
00:00:03.756	-0.050	-0.020
00:00:03.758	-0.015	-0.025
00:00:03.760	0.005	-0.030
00:00:03.762	-0.015	-0.035
00:00:03.764	-0.095	-0.040
00:00:03.766	-0.095	-0.040
00:00:03.768	-0.115	-0.045
00:00:03.770	-0.145	-0.045
00:00:03.772	-0.195	-0.045
00:00:03.774	-0.185	-0.045
00:00:03.776	-0.120	-0.045
00:00:03.778	-0.035	-0.045
00:00:03.780	-0.020	-0.045
00:00:03.782	-0.020	-0.040
00:00:03.784	-0.040	-0.040
00:00:03.786	-0.095	-0.040
00:00:03.788	-0.150	-0.040
00:00:03.790	-0.165	-0.045
00:00:03.792	-0.210	-0.050
00:00:03.794	-0.145	-0.055
00:00:03.796	-0.145	-0.060
00:00:03.798	-0.025	-0.070
00:00:03.800	-0.060	-0.080
00:00:03.802	-0.085	-0.085
00:00:03.804	-0.045	-0.085
00:00:03.806	-0.075	-0.080
00:00:03.808	-0.260	-0.075
00:00:03.810	-0.330	-0.065
00:00:03.812	-0.130	-0.055
00:00:03.814	-0.095	-0.045
00:00:03.816	-0.025	-0.035
00:00:03.818	0.070	-0.030
00:00:03.820	0.000	-0.030
00:00:03.822	-0.015	-0.035
00:00:03.824	-0.050	-0.040
00:00:03.826	-0.155	-0.055
00:00:03.828	-0.185	-0.065
00:00:03.830	-0.190	-0.075
00:00:03.832	-0.165	-0.085
00:00:03.834	-0.180	-0.085
00:00:03.836	-0.140	-0.080
00:00:03.838	-0.115	-0.075
00:00:03.840	-0.070	-0.060
00:00:03.842	0.015	-0.050
00:00:03.844	0.055	-0.035
00:00:03.846	-0.070	-0.020
00:00:03.848	-0.170	-0.010
00:00:03.850	-0.215	-0.005
00:00:03.852	-0.125	0.000
00:00:03.854	-0.075	0.000
00:00:03.856	0.025	-0.005
00:00:03.858	0.055	-0.010
00:00:03.860	0.045	-0.015
00:00:03.862	-0.050	-0.025
00:00:03.864	-0.135	-0.030
00:00:03.866	-0.195	-0.035
00:00:03.868	-0.140	-0.035
00:00:03.870	-0.135	-0.030
00:00:03.872	-0.105	-0.025
00:00:03.874	-0.055	-0.020
00:00:03.876	-0.055	-0.015
00:00:03.878	0.010	-0.010
00:00:03.880	0.015	-0.010
00:00:03.882	-0.010	-0.015
00:00:03.884	-0.085	-0.025
00:00:03.886	-0.105	-0.040
00:00:03.888	-0.140	-0.060
00:00:03.890	-0.225	-0.075
00:00:03.892	-0.300	-0.085
00:00:03.894	-0.120	-0.090
00:00:03.896	-0.025	-0.090
00:00:03.898	-0.045	-0.080
00:00:03.900	-0.130	-0.070
00:00:03.902	-0.100	-0.050
00:00:03.904	0.000	-0.035
00:00:03.906	-0.050	-0.020
00:00:03.908	-0.105	-0.005
00:00:03.910	-0.145	-0.005
00:00:03.912	-0.160	-0.005
00:00:03.914	-0.105	-0.010
00:00:03.916	-0.070	-0.020
00:00:03.918	-0.030	-0.030
00:00:03.920	-0.035	-0.040
00:00:03.922	0.025	-0.050
00:00:03.924	-0.055	-0.055
00:00:03.926	-0.125	-0.055
00:00:03.928	-0.190	-0.060
00:00:03.930	-0.215	-0.060
00:00:03.932	-0.250	-0.060
00:00:03.934	-0.135	-0.065
00:00:03.936	-0.035	-0.065
00:00:03.938	0.000	-0.065
00:00:03.940	-0.025	-0.060
00:00:03.942	-0.020	-0.055
00:00:03.944	-0.055	-0.050
00:00:03.946	-0.160	-0.040
00:00:03.948	-0.135	-0.035
00:00:03.950	-0.120	-0.030
00:00:03.952	-0.165	-0.030
00:00:03.954	-0.095	-0.035
00:00:03.956	-0.080	-0.045
00:00:03.958	0.025	-0.060
00:00:03.960	-0.020	-0.070
00:00:03.962	-0.100	-0.085
00:00:03.964	-0.135	-0.095
00:00:03.966	-0.170	-0.095
00:00:03.968	-0.200	-0.090
00:00:03.970	-0.195	-0.075
00:00:03.972	-0.115	-0.060
00:00:03.974	-0.065	-0.045
00:00:03.976	0.050	-0.030
00:00:03.978	0.085	-0.020
00:00:03.980	-0.010	-0.015
00:00:03.982	-0.135	-0.020
00:00:03.984	-0.040	-0.030
00:00:03.986	-0.185	-0.050
00:00:03.988	-0.220	-0.065
00:00:03.990	-0.220	-0.080
00:00:03.992	-0.150	-0.085
00:00:03.994	-0.090	-0.085
00:00:03.996	-0.100	-0.075
00:00:03.998	-0.075	-0.060
00:00:04.000	0.030	-0.040
00:00:04.002	0.040	-0.020
00:00:04.004	-0.055	-0.010
00:00:04.006	-0.165	-0.005
00:00:04.008	-0.215	-0.010
00:00:04.010	-0.090	-0.030
00:00:04.012	-0.035	-0.050
00:00:04.014	-0.130	-0.075
00:00:04.016	-0.130	-0.100
00:00:04.018	-0.075	-0.115
00:00:04.020	-0.120	-0.120
00:00:04.022	-0.100	-0.115
00:00:04.024	-0.150	-0.095
00:00:04.026	-0.190	-0.070
00:00:04.028	-0.050	-0.040
00:00:04.030	-0.080	-0.010
00:00:04.032	-0.075	0.005
00:00:04.034	-0.090	0.015
00:00:04.036	-0.080	0.015
00:00:04.038	0.050	0.005
00:00:04.040	0.060	-0.010
00:00:04.042	-0.035	-0.030
00:00:04.044	-0.105	-0.045
00:00:04.046	-0.110	-0.055
00:00:04.048	-0.175	-0.065
00:00:04.050	-0.185	-0.065
00:00:04.052	-0.210	-0.060
00:00:04.054	-0.090	-0.055
00:00:04.056	-0.025	-0.050
00:00:04.058	0.010	-0.045
00:00:04.060	-0.010	-0.040
00:00:04.062	-0.055	-0.040
00:00:04.064	-0.150	-0.040
00:00:04.066	-0.115	-0.040
00:00:04.068	-0.115	-0.040
00:00:04.070	-0.075	-0.035
00:00:04.072	-0.125	-0.030
00:00:04.074	-0.105	-0.025
00:00:04.076	0.035	-0.020
00:00:04.078	0.020	-0.015
00:00:04.080	-0.045	-0.015
00:00:04.082	-0.040	-0.020
00:00:04.084	-0.100	-0.025
00:00:04.086	-0.045	-0.035
00:00:04.088	-0.140	-0.040
00:00:04.090	-0.185	-0.045
00:00:04.092	-0.130	-0.050
00:00:04.094	-0.055	-0.050
00:00:04.096	-0.055	-0.050
00:00:04.098	0.035	-0.045
00:00:04.100	-0.065	-0.040
00:00:04.102	0.010	-0.035
00:00:04.104	-0.025	-0.030
00:00:04.106	-0.135	-0.020
00:00:04.108	-0.215	-0.015
00:00:04.110	-0.140	-0.010
00:00:04.112	-0.040	-0.005
00:00:04.114	0.075	0.000
00:00:04.116	0.060	0.005
00:00:04.118	0.025	0.010
00:00:04.120	0.035	0.015
00:00:04.122	0.015	0.020
00:00:04.124	-0.045	0.020
00:00:04.126	-0.075	0.025
00:00:04.128	-0.100	0.025
00:00:04.130	-0.090	0.025
00:00:04.132	-0.040	0.020
00:00:04.134	0.045	0.010
00:00:04.136	0.025	0.000
00:00:04.138	0.025	-0.010
00:00:04.140	0.030	-0.025
00:00:04.142	-0.050	-0.035
00:00:04.144	-0.095	-0.045
00:00:04.146	-0.200	-0.050
00:00:04.148	-0.270	-0.050
00:00:04.150	-0.125	-0.045
00:00:04.152	-0.025	-0.040
00:00:04.154	0.025	-0.030
00:00:04.156	-0.005	-0.025
00:00:04.158	-0.030	-0.020
00:00:04.160	0.005	-0.020
00:00:04.162	-0.005	-0.025
00:00:04.164	-0.125	-0.035
00:00:04.166	-0.160	-0.045
00:00:04.168	-0.170	-0.050
00:00:04.170	-0.130	-0.055
00:00:04.172	-0.075	-0.060
00:00:04.174	-0.090	-0.060
00:00:04.176	-0.050	-0.055
00:00:04.178	-0.015	-0.050
00:00:04.180	0.030	-0.045
00:00:04.182	0.065	-0.040
00:00:04.184	0.035	-0.035
00:00:04.186	-0.165	-0.030
00:00:04.188	-0.255	-0.025
00:00:04.190	-0.275	-0.020
00:00:04.192	-0.055	-0.020
00:00:04.194	-0.005	-0.015
00:00:04.196	0.040	-0.020
00:00:04.198	0.045	-0.025
00:00:04.200	0.010	-0.030
00:00:04.202	-0.070	-0.040
00:00:04.204	-0.135	-0.050
00:00:04.206	-0.180	-0.055
00:00:04.208	-0.160	-0.065
00:00:04.210	-0.115	-0.065
00:00:04.212	-0.085	-0.060
00:00:04.214	-0.045	-0.060
00:00:04.216	-0.005	-0.055
00:00:04.218	0.035	-0.060
00:00:04.220	-0.055	-0.065
00:00:04.222	-0.130	-0.080
00:00:04.224	-0.200	-0.100
00:00:04.226	-0.195	-0.120
00:00:04.228	-0.190	-0.135
00:00:04.230	-0.300	-0.145
00:00:04.232	-0.265	-0.140
00:00:04.234	-0.065	-0.125
00:00:04.236	0.020	-0.095
00:00:04.238	-0.080	-0.055
00:00:04.240	0.030	-0.005
00:00:04.242	0.105	0.045
00:00:04.244	0.010	0.095
00:00:04.246	0.055	0.140
00:00:04.248	0.070	0.180
00:00:04.250	0.140	0.225
00:00:04.252	0.195	0.275
00:00:04.254	0.320	0.330
00:00:04.256	0.520	0.390
00:00:04.258	0.590	0.455
00:00:04.260	0.585	0.520
00:00:04.262	0.565	0.570
00:00:04.264	0.570	0.600
00:00:04.266	0.490	0.605
00:00:04.268	0.430	0.575
00:00:04.270	0.495	0.510
00:00:04.272	0.445	0.420
00:00:04.274	0.295	0.310
00:00:04.276	0.220	0.195
00:00:04.278	0.075	0.090
00:00:04.280	-0.045	0.005
00:00:04.282	-0.100	-0.060
00:00:04.284	-0.235	-0.100
00:00:04.286	-0.195	-0.115
00:00:04.288	-0.230	-0.115
00:00:04.290	-0.205	-0.105
00:00:04.292	-0.180	-0.090
00:00:04.294	-0.035	-0.075
00:00:04.296	0.070	-0.065
00:00:04.298	0.110	-0.050
00:00:04.300	-0.035	-0.040
00:00:04.302	-0.185	-0.030
00:00:04.304	-0.150	-0.015
00:00:04.306	-0.035	-0.005
00:00:04.308	-0.085	0.005
00:00:04.310	-0.005	0.005
00:00:04.312	-0.005	0.005
00:00:04.314	0.010	-0.005
00:00:04.316	0.025	-0.015
00:00:04.318	-0.040	-0.030
00:00:04.320	-0.115	-0.045
00:00:04.322	-0.155	-0.050
00:00:04.324	-0.085	-0.050
00:00:04.326	-0.035	-0.045
00:00:04.328	-0.120	-0.035
00:00:04.330	-0.110	-0.025
00:00:04.332	-0.015	-0.015
00:00:04.334	0.025	-0.010
00:00:04.336	0.065	-0.010
00:00:04.338	0.085	-0.015
00:00:04.340	0.010	-0.025
00:00:04.342	-0.105	-0.035
00:00:04.344	-0.205	-0.045
00:00:04.346	-0.175	-0.055
00:00:04.348	-0.175	-0.060
00:00:04.350	-0.100	-0.060
00:00:04.352	-0.010	-0.060
00:00:04.354	0.010	-0.055
00:00:04.356	-0.025	-0.050
00:00:04.358	0.005	-0.040
00:00:04.360	0.080	-0.035
00:00:04.362	-0.125	-0.030
00:00:04.364	-0.120	-0.020
00:00:04.366	-0.140	-0.010
00:00:04.368	-0.040	0.000
00:00:04.370	-0.030	0.005
00:00:04.372	-0.005	0.015
00:00:04.374	0.065	0.020
00:00:04.376	0.070	0.020
00:00:04.378	0.075	0.020
00:00:04.380	0.075	0.015
00:00:04.382	-0.030	0.015
00:00:04.384	-0.095	0.010
00:00:04.386	-0.090	0.010
00:00:04.388	-0.115	0.010
00:00:04.390	-0.020	0.010
00:00:04.392	0.005	0.015
00:00:04.394	0.035	0.015
00:00:04.396	0.125	0.015
00:00:04.398	0.020	0.015
00:00:04.400	-0.015	0.015
00:00:04.402	-0.070	0.010
00:00:04.404	-0.020	0.005
00:00:04.406	0.005	0.005
00:00:04.408	-0.115	0.000
00:00:04.410	-0.060	0.000
00:00:04.412	-0.035	0.005
00:00:04.414	0.060	0.010
00:00:04.416	0.100	0.015
00:00:04.418	0.070	0.025
00:00:04.420	0.085	0.035
00:00:04.422	-0.030	0.045
00:00:04.424	-0.045	0.060
00:00:04.426	0.045	0.075
00:00:04.428	0.085	0.090
00:00:04.430	0.095	0.105
00:00:04.432	0.035	0.115
00:00:04.434	0.005	0.125
00:00:04.436	0.260	0.125
00:00:04.438	0.185	0.125
00:00:04.440	0.150	0.120
00:00:04.442	0.065	0.110
00:00:04.444	-0.015	0.100
00:00:04.446	0.030	0.095
00:00:04.448	0.005	0.095
00:00:04.450	-0.015	0.100
00:00:04.452	0.085	0.110
00:00:04.454	0.220	0.125
00:00:04.456	0.235	0.140
00:00:04.458	0.260	0.160
00:00:04.460	0.220	0.175
00:00:04.462	0.120	0.185
00:00:04.464	0.120	0.185
00:00:04.466	0.080	0.180
00:00:04.468	0.060	0.170
00:00:04.470	0.095	0.155
00:00:04.472	0.080	0.145
00:00:04.474	0.200	0.135
00:00:04.476	0.220	0.140
00:00:04.478	0.235	0.150
00:00:04.480	0.245	0.170
00:00:04.482	0.205	0.200
00:00:04.484	0.120	0.230
00:00:04.486	0.160	0.255
00:00:04.488	0.210	0.275
00:00:04.490	0.255	0.285
00:00:04.492	0.295	0.285
00:00:04.494	0.310	0.265
00:00:04.496	0.300	0.240
00:00:04.498	0.225	0.210
00:00:04.500	0.210	0.180
00:00:04.502	0.080	0.155
00:00:04.504	0.070	0.140
00:00:04.506	0.085	0.140
00:00:04.508	0.125	0.150
00:00:04.510	0.165	0.165
00:00:04.512	0.175	0.185
00:00:04.514	0.225	0.195
00:00:04.516	0.370	0.200
00:00:04.518	0.230	0.195
00:00:04.520	0.125	0.170
00:00:04.522	0.035	0.140
00:00:04.524	-0.005	0.100
00:00:04.526	-0.035	0.065
00:00:04.528	-0.045	0.035
00:00:04.530	-0.075	0.015
00:00:04.532	0.025	0.005
00:00:04.534	0.135	0.010
00:00:04.536	0.170	0.015
00:00:04.538	0.095	0.025
00:00:04.540	0.010	0.035
00:00:04.542	-0.010	0.035
00:00:04.544	-0.115	0.030
00:00:04.546	-0.155	0.015
00:00:04.548	-0.100	-0.005
00:00:04.550	-0.030	-0.025
00:00:04.552	0.090	-0.045
00:00:04.554	0.035	-0.055
00:00:04.556	-0.045	-0.065
00:00:04.558	-0.005	-0.060
00:00:04.560	-0.070	-0.060
00:00:04.562	-0.195	-0.050
00:00:04.564	-0.130	-0.050
00:00:04.566	-0.030	-0.050
00:00:04.568	-0.160	-0.055
00:00:04.570	-0.115	-0.065
00:00:04.572	-0.065	-0.075
00:00:04.574	0.015	-0.080
00:00:04.576	-0.020	-0.085
00:00:04.578	-0.025	-0.090
00:00:04.580	-0.035	-0.085
00:00:04.582	-0.190	-0.080
00:00:04.584	-0.140	-0.070
00:00:04.586	-0.080	-0.065
00:00:04.588	-0.145	-0.065
00:00:04.590	-0.140	-0.070
00:00:04.592	-0.025	-0.075
00:00:04.594	-0.035	-0.080
00:00:04.596	-0.010	-0.085
00:00:04.598	0.045	-0.085
00:00:04.600	-0.115	-0.085
00:00:04.602	-0.155	-0.080
00:00:04.604	-0.100	-0.075
00:00:04.606	-0.120	-0.070
00:00:04.608	-0.170	-0.070
00:00:04.610	-0.115	-0.070
00:00:04.612	-0.030	-0.075
00:00:04.614	0.005	-0.080
00:00:04.616	-0.030	-0.085
00:00:04.618	-0.040	-0.090
00:00:04.620	-0.125	-0.095
00:00:04.622	-0.115	-0.095
00:00:04.624	-0.165	-0.090
00:00:04.626	-0.125	-0.080
00:00:04.628	-0.145	-0.075
00:00:04.630	-0.085	-0.070
00:00:04.632	-0.100	-0.070
00:00:04.634	0.060	-0.075
00:00:04.636	0.010	-0.080
00:00:04.638	-0.075	-0.085
00:00:04.640	-0.110	-0.090
00:00:04.642	-0.155	-0.090
00:00:04.644	-0.135	-0.090
00:00:04.646	-0.135	-0.080
00:00:04.648	-0.145	-0.070
00:00:04.650	-0.040	-0.060
00:00:04.652	0.050	-0.050
00:00:04.654	0.010	-0.045
00:00:04.656	0.025	-0.040
00:00:04.658	-0.010	-0.040
00:00:04.660	-0.080	-0.040
00:00:04.662	-0.105	-0.045
00:00:04.664	-0.095	-0.045
00:00:04.666	-0.120	-0.050
00:00:04.668	-0.095	-0.055
00:00:04.670	-0.080	-0.055
00:00:04.672	-0.060	-0.055
00:00:04.674	-0.015	-0.055
00:00:04.676	0.090	-0.055
00:00:04.678	0.035	-0.050
00:00:04.680	-0.105	-0.045
00:00:04.682	-0.170	-0.040
00:00:04.684	-0.085	-0.035
00:00:04.686	-0.120	-0.030
00:00:04.688	-0.105	-0.025
00:00:04.690	0.065	-0.025
00:00:04.692	0.055	-0.025
00:00:04.694	-0.040	-0.030
00:00:04.696	0.015	-0.040
00:00:04.698	-0.015	-0.050
00:00:04.700	-0.040	-0.065
00:00:04.702	-0.100	-0.075
00:00:04.704	-0.190	-0.090
00:00:04.706	-0.185	-0.095
00:00:04.708	-0.130	-0.100
00:00:04.710	-0.075	-0.105
00:00:04.712	-0.025	-0.100
00:00:04.714	-0.025	-0.095
00:00:04.716	-0.075	-0.085
00:00:04.718	-0.070	-0.075
00:00:04.720	-0.075	-0.065
00:00:04.722	-0.055	-0.050
00:00:04.724	-0.075	-0.045
00:00:04.726	-0.095	-0.035
00:00:04.728	-0.035	-0.030
00:00:04.730	0.010	-0.030
00:00:04.732	-0.040	-0.030
00:00:04.734	-0.030	-0.035
00:00:04.736	0.055	-0.040
00:00:04.738	0.015	-0.050
00:00:04.740	-0.105	-0.055
00:00:04.742	-0.110	-0.060
00:00:04.744	-0.175	-0.065
00:00:04.746	-0.065	-0.070
00:00:04.748	-0.090	-0.070
00:00:04.750	-0.075	-0.070
00:00:04.752	-0.025	-0.065
00:00:04.754	-0.035	-0.060
00:00:04.756	0.010	-0.055
00:00:04.758	0.035	-0.050
00:00:04.760	-0.005	-0.045
00:00:04.762	-0.120	-0.045
00:00:04.764	-0.185	-0.045
00:00:04.766	-0.115	-0.050
00:00:04.768	-0.115	-0.055
00:00:04.770	-0.015	-0.060
00:00:04.772	0.010	-0.070
00:00:04.774	0.015	-0.080
00:00:04.776	0.015	-0.085
00:00:04.778	-0.080	-0.085
00:00:04.780	-0.150	-0.090
00:00:04.782	-0.275	-0.085
00:00:04.784	-0.160	-0.080
00:00:04.786	-0.025	-0.075
00:00:04.788	-0.025	-0.070
00:00:04.790	0.020	-0.065
00:00:04.792	-0.075	-0.060
00:00:04.794	-0.005	-0.060
00:00:04.796	0.030	-0.060
00:00:04.798	0.045	-0.060
00:00:04.800	-0.095	-0.060
00:00:04.802	-0.175	-0.060
00:00:04.804	-0.095	-0.060
00:00:04.806	-0.155	-0.065
00:00:04.808	-0.140	-0.065
00:00:04.810	-0.005	-0.070
00:00:04.812	0.000	-0.070
00:00:04.814	0.030	-0.070
00:00:04.816	-0.045	-0.065
00:00:04.818	-0.065	-0.060
00:00:04.820	-0.060	-0.050
00:00:04.822	-0.005	-0.040
00:00:04.824	-0.065	-0.035
00:00:04.826	-0.090	-0.030
00:00:04.828	-0.115	-0.035
00:00:04.830	-0.025	-0.045
00:00:04.832	-0.010	-0.060
00:00:04.834	-0.035	-0.075
00:00:04.836	-0.105	-0.090
00:00:04.838	0.000	-0.095
00:00:04.840	-0.090	-0.095
00:00:04.842	-0.150	-0.080
00:00:04.844	-0.135	-0.060
00:00:04.846	-0.035	-0.035
00:00:04.848	-0.040	-0.010
00:00:04.850	0.085	0.005
00:00:04.852	0.070	0.015
00:00:04.854	0.045	0.010
00:00:04.856	0.010	-0.010
00:00:04.858	-0.035	-0.035
00:00:04.860	-0.085	-0.065
00:00:04.862	-0.160	-0.095
00:00:04.864	-0.130	-0.120
00:00:04.866	-0.255	-0.130
00:00:04.868	-0.170	-0.135
00:00:04.870	0.025	-0.125
00:00:04.872	-0.005	-0.110
00:00:04.874	-0.055	-0.090
00:00:04.876	-0.030	-0.065
00:00:04.878	-0.040	-0.045
00:00:04.880	-0.010	-0.030
00:00:04.882	-0.095	-0.020
00:00:04.884	-0.050	-0.015
00:00:04.886	-0.015	-0.020
00:00:04.888	0.005	-0.025
00:00:04.890	0.005	-0.035
00:00:04.892	0.045	-0.045
00:00:04.894	-0.065	-0.055
00:00:04.896	-0.025	-0.060
00:00:04.898	0.000	-0.060
00:00:04.900	-0.095	-0.060
00:00:04.902	-0.075	-0.055
00:00:04.904	-0.040	-0.045
00:00:04.906	-0.105	-0.035
00:00:04.908	-0.020	-0.020
00:00:04.910	0.055	-0.010
00:00:04.912	0.135	0.000
00:00:04.914	0.140	0.005
00:00:04.916	0.055	0.010
00:00:04.918	-0.030	0.015
00:00:04.920	-0.115	0.015
00:00:04.922	-0.025	0.020
00:00:04.924	-0.030	0.020
00:00:04.926	-0.005	0.020
00:00:04.928	-0.005	0.020
00:00:04.930	0.155	0.020
00:00:04.932	0.090	0.010
00:00:04.934	0.065	0.000
00:00:04.936	0.005	-0.010
00:00:04.938	-0.070	-0.025
00:00:04.940	-0.075	-0.040
00:00:04.942	-0.070	-0.055
00:00:04.944	-0.135	-0.065
00:00:04.946	-0.085	-0.075
00:00:04.948	0.000	-0.085
00:00:04.950	-0.030	-0.090
00:00:04.952	-0.050	-0.095
00:00:04.954	-0.035	-0.100
00:00:04.956	-0.010	-0.105
00:00:04.958	-0.055	-0.105
00:00:04.960	-0.305	-0.105
00:00:04.962	-0.240	-0.095
00:00:04.964	-0.050	-0.085
00:00:04.966	0.025	-0.075
00:00:04.968	0.030	-0.065
00:00:04.970	-0.030	-0.060
00:00:04.972	0.015	-0.060
00:00:04.974	0.055	-0.070
00:00:04.976	-0.055	-0.080
00:00:04.978	-0.235	-0.100
00:00:04.980	-0.165	-0.115
00:00:04.982	-0.170	-0.120
00:00:04.984	-0.165	-0.120
00:00:04.986	-0.090	-0.110
00:00:04.988	-0.025	-0.090
00:00:04.990	0.015	-0.065
00:00:04.992	0.135	-0.040
00:00:04.994	0.085	-0.020
00:00:04.996	0.015	-0.015
00:00:04.998	-0.145	-0.025
00:00:05.000	-0.125	-0.050
00:00:05.002	-0.125	-0.080
00:00:05.004	-0.170	-0.115
00:00:05.006	-0.195	-0.145
00:00:05.008	-0.100	-0.165
00:00:05.010	-0.075	-0.170
00:00:05.012	-0.050	-0.160
00:00:05.014	-0.025	-0.140
00:00:05.016	-0.040	-0.120
00:00:05.018	-0.135	-0.100
00:00:05.020	-0.155	-0.085
00:00:05.022	-0.060	-0.080
00:00:05.024	-0.165	-0.085
00:00:05.026	-0.150	-0.105
00:00:05.028	-0.055	-0.125
00:00:05.030	-0.130	-0.150
00:00:05.032	-0.085	-0.165
00:00:05.034	0.005	-0.175
00:00:05.036	-0.080	-0.180
00:00:05.038	-0.200	-0.170
00:00:05.040	-0.245	-0.150
00:00:05.042	-0.280	-0.130
00:00:05.044	-0.185	-0.100
00:00:05.046	-0.070	-0.065
00:00:05.048	0.090	-0.025
00:00:05.050	0.155	0.025
00:00:05.052	0.235	0.085
00:00:05.054	0.250	0.155
00:00:05.056	0.285	0.230
00:00:05.058	0.265	0.310
00:00:05.060	0.335	0.390
00:00:05.062	0.405	0.465
00:00:05.064	0.590	0.530
00:00:05.066	0.575	0.570
00:00:05.068	0.665	0.595
00:00:05.070	0.755	0.590
00:00:05.072	0.700	0.555
00:00:05.074	0.585	0.500
00:00:05.076	0.420	0.420
00:00:05.078	0.235	0.320
00:00:05.080	0.100	0.215
00:00:05.082	0.035	0.105
00:00:05.084	-0.015	0.000
00:00:05.086	-0.125	-0.090
00:00:05.088	-0.175	-0.160
00:00:05.090	-0.130	-0.200
00:00:05.092	-0.100	-0.215
00:00:05.094	-0.140	-0.200
00:00:05.096	-0.170	-0.165
00:00:05.098	-0.175	-0.120
00:00:05.100	-0.045	-0.070
00:00:05.102	0.020	-0.025
00:00:05.104	-0.005	0.000
00:00:05.106	0.085	0.015
00:00:05.108	0.065	0.005
00:00:05.110	-0.035	-0.010
00:00:05.112	-0.105	-0.035
00:00:05.114	0.050	-0.060
00:00:05.116	0.075	-0.075
00:00:05.118	-0.065	-0.080
00:00:05.120	-0.095	-0.075
00:00:05.122	-0.100	-0.060
00:00:05.124	-0.080	-0.040
00:00:05.126	0.010	-0.020
00:00:05.128	0.115	0.000
00:00:05.130	0.085	0.010
00:00:05.132	0.125	0.010
00:00:05.134	0.050	0.005
00:00:05.136	0.040	0.000
00:00:05.138	-0.105	-0.010
00:00:05.140	-0.070	-0.020
00:00:05.142	0.005	-0.025
00:00:05.144	-0.025	-0.025
00:00:05.146	-0.020	-0.030
00:00:05.148	0.070	-0.030
00:00:05.150	0.040	-0.025
00:00:05.152	0.050	-0.025
00:00:05.154	-0.035	-0.025
00:00:05.156	0.015	-0.020
00:00:05.158	0.005	-0.015
00:00:05.160	-0.015	-0.010
00:00:05.162	-0.060	0.000
00:00:05.164	0.030	0.015
00:00:05.166	0.065	0.020
00:00:05.168	0.030	0.025
00:00:05.170	0.145	0.025
00:00:05.172	0.135	0.020
00:00:05.174	0.095	0.010
00:00:05.176	-0.010	0.000
00:00:05.178	-0.135	-0.010
00:00:05.180	-0.160	-0.015
00:00:05.182	-0.075	-0.015
00:00:05.184	0.095	-0.010
00:00:05.186	0.100	0.005
00:00:05.188	0.130	0.020
00:00:05.190	0.070	0.035
00:00:05.192	0.070	0.050
00:00:05.194	0.165	0.060
00:00:05.196	0.055	0.065
00:00:05.198	0.080	0.065
00:00:05.200	-0.010	0.060
00:00:05.202	0.045	0.055
00:00:05.204	0.045	0.050
00:00:05.206	0.025	0.050
00:00:05.208	0.180	0.050
00:00:05.210	0.135	0.050
00:00:05.212	0.180	0.055
00:00:05.214	0.065	0.055
00:00:05.216	-0.005	0.050
00:00:05.218	0.055	0.045
00:00:05.220	0.005	0.035
00:00:05.222	0.005	0.025
00:00:05.224	-0.075	0.020
00:00:05.226	0.095	0.020
00:00:05.228	0.170	0.025
00:00:05.230	0.105	0.040
00:00:05.232	0.135	0.060
00:00:05.234	0.125	0.085
00:00:05.236	0.165	0.110
00:00:05.238	0.230	0.130
00:00:05.240	0.080	0.140
00:00:05.242	0.075	0.145
00:00:05.244	0.175	0.140
00:00:05.246	0.260	0.130
00:00:05.248	0.105	0.120
00:00:05.250	0.110	0.105
00:00:05.252	0.295	0.100
00:00:05.254	0.185	0.100
00:00:05.256	0.020	0.110
00:00:05.258	0.030	0.125
00:00:05.260	0.125	0.145
00:00:05.262	0.190	0.165
00:00:05.264	0.325	0.185
00:00:05.266	0.320	0.195
00:00:05.268	0.265	0.200
00:00:05.270	0.210	0.200
00:00:05.272	0.155	0.195
00:00:05.274	0.180	0.195
00:00:05.276	0.180	0.200
00:00:05.278	0.185	0.210
00:00:05.280	0.285	0.230
00:00:05.282	0.365	0.250
00:00:05.284	0.395	0.270
00:00:05.286	0.410	0.285
00:00:05.288	0.355	0.295
00:00:05.290	0.200	0.290
00:00:05.292	0.200	0.280
00:00:05.294	0.365	0.260
00:00:05.296	0.360	0.240
00:00:05.298	0.160	0.225
00:00:05.300	0.220	0.215
00:00:05.302	0.210	0.210
00:00:05.304	0.215	0.220
00:00:05.306	0.295	0.235
00:00:05.308	0.285	0.250
00:00:05.310	0.390	0.265
00:00:05.312	0.445	0.265
00:00:05.314	0.325	0.255
00:00:05.316	0.210	0.240
00:00:05.318	0.115	0.215
00:00:05.320	0.130	0.185
00:00:05.322	0.150	0.160
00:00:05.324	0.100	0.140
00:00:05.326	0.185	0.130
00:00:05.328	0.290	0.125
00:00:05.330	0.270	0.125
00:00:05.332	0.190	0.125
00:00:05.334	0.130	0.120
00:00:05.336	0.085	0.105
00:00:05.338	0.000	0.085
00:00:05.340	0.005	0.055
00:00:05.342	0.020	0.025
00:00:05.344	-0.040	0.000
00:00:05.346	0.015	-0.025
00:00:05.348	0.130	-0.035
00:00:05.350	0.110	-0.035
00:00:05.352	0.130	-0.025
00:00:05.354	0.015	-0.010
00:00:05.356	-0.145	0.000
00:00:05.358	-0.050	0.010
00:00:05.360	0.030	0.015
00:00:05.362	0.000	0.010
00:00:05.364	0.035	0.005
00:00:05.366	0.130	-0.005
00:00:05.368	0.050	-0.015
00:00:05.370	0.025	-0.025
00:00:05.372	0.025	-0.030
00:00:05.374	0.065	-0.030
00:00:05.376	-0.035	-0.030
00:00:05.378	-0.095	-0.030
00:00:05.380	-0.080	-0.030
00:00:05.382	0.060	-0.030
00:00:05.384	-0.050	-0.030
00:00:05.386	-0.005	-0.030
00:00:05.388	0.040	-0.035
00:00:05.390	0.130	-0.035
00:00:05.392	0.065	-0.040
00:00:05.394	-0.005	-0.045
00:00:05.396	-0.095	-0.050
00:00:05.398	-0.100	-0.055
00:00:05.400	-0.140	-0.060
00:00:05.402	-0.095	-0.070
00:00:05.404	-0.020	-0.080
00:00:05.406	0.040	-0.085
00:00:05.408	0.045	-0.085
00:00:05.410	0.015	-0.085
00:00:05.412	-0.080	-0.075
00:00:05.414	-0.080	-0.070
00:00:05.416	-0.045	-0.060
00:00:05.418	-0.095	-0.060
00:00:05.420	-0.085	-0.060
00:00:05.422	-0.120	-0.065
00:00:05.424	-0.055	-0.070
00:00:05.426	0.140	-0.080
00:00:05.428	0.005	-0.090
00:00:05.430	0.015	-0.095
00:00:05.432	0.000	-0.095
00:00:05.434	-0.060	-0.090
00:00:05.436	-0.100	-0.075
00:00:05.438	-0.090	-0.060
00:00:05.440	-0.095	-0.040
00:00:05.442	-0.035	-0.030
00:00:05.444	0.100	-0.020
00:00:05.446	0.115	-0.015
00:00:05.448	0.055	-0.020
00:00:05.450	0.045	-0.025
00:00:05.452	0.025	-0.035
00:00:05.454	-0.025	-0.045
00:00:05.456	-0.005	-0.060
00:00:05.458	-0.105	-0.070
00:00:05.460	-0.155	-0.080
00:00:05.462	-0.180	-0.085
00:00:05.464	0.000	-0.090
00:00:05.466	0.015	-0.095
00:00:05.468	-0.045	-0.090
00:00:05.470	0.030	-0.085
00:00:05.472	0.025	-0.075
00:00:05.474	0.020	-0.065
00:00:05.476	-0.060	-0.050
00:00:05.478	-0.100	-0.040
00:00:05.480	-0.025	-0.030
00:00:05.482	0.030	-0.025
00:00:05.484	0.015	-0.025
00:00:05.486	0.035	-0.030
00:00:05.488	0.045	-0.035
00:00:05.490	-0.040	-0.040
00:00:05.492	-0.030	-0.045
00:00:05.494	0.010	-0.040
00:00:05.496	-0.030	-0.035
00:00:05.498	0.040	-0.030
00:00:05.500	0.030	-0.020
00:00:05.502	-0.020	-0.015
00:00:05.504	-0.010	-0.015
00:00:05.506	0.045	-0.020
00:00:05.508	0.075	-0.030
00:00:05.510	0.070	-0.050
00:00:05.512	-0.050	-0.065
00:00:05.514	-0.135	-0.085
00:00:05.516	-0.045	-0.095
00:00:05.518	-0.110	-0.100
00:00:05.520	-0.080	-0.100
00:00:05.522	-0.110	-0.095
00:00:05.524	-0.055	-0.085
00:00:05.526	0.040	-0.075
00:00:05.528	0.015	-0.070
00:00:05.530	0.050	-0.070
00:00:05.532	0.030	-0.070
00:00:05.534	-0.130	-0.070
00:00:05.536	-0.100	-0.070
00:00:05.538	-0.055	-0.075
00:00:05.540	-0.035	-0.070
00:00:05.542	-0.050	-0.070
00:00:05.544	0.000	-0.060
00:00:05.546	-0.025	-0.055
00:00:05.548	0.100	-0.050
00:00:05.550	0.065	-0.045
00:00:05.552	0.020	-0.040
00:00:05.554	-0.065	-0.035
00:00:05.556	-0.175	-0.030
00:00:05.558	-0.120	-0.030
00:00:05.560	0.075	-0.030
00:00:05.562	0.090	-0.030
00:00:05.564	0.055	-0.030
00:00:05.566	0.055	-0.035
00:00:05.568	-0.030	-0.035
00:00:05.570	0.035	-0.040
00:00:05.572	-0.035	-0.050
00:00:05.574	-0.030	-0.055
00:00:05.576	-0.120	-0.055
00:00:05.578	-0.010	-0.060
00:00:05.580	-0.035	-0.060
00:00:05.582	-0.055	-0.060
00:00:05.584	-0.015	-0.060
00:00:05.586	0.085	-0.060
00:00:05.588	0.080	-0.060
00:00:05.590	-0.005	-0.065
00:00:05.592	-0.065	-0.070
00:00:05.594	-0.155	-0.075
00:00:05.596	-0.145	-0.085
00:00:05.598	-0.065	-0.090
00:00:05.600	-0.065	-0.090
00:00:05.602	-0.045	-0.095
00:00:05.604	0.025	-0.090
00:00:05.606	0.080	-0.085
00:00:05.608	0.005	-0.080
00:00:05.610	-0.040	-0.075
00:00:05.612	-0.015	-0.070
00:00:05.614	-0.080	-0.065
00:00:05.616	-0.140	-0.065
00:00:05.618	-0.140	-0.070
00:00:05.620	-0.010	-0.075
00:00:05.622	-0.055	-0.080
00:00:05.624	-0.025	-0.085
00:00:05.626	0.015	-0.085
00:00:05.628	0.105	-0.080
00:00:05.630	0.035	-0.075
00:00:05.632	-0.100	-0.070
00:00:05.634	-0.085	-0.060
00:00:05.636	-0.075	-0.055
00:00:05.638	-0.085	-0.050
00:00:05.640	-0.045	-0.050
00:00:05.642	0.080	-0.055
00:00:05.644	0.020	-0.060
00:00:05.646	-0.020	-0.070
00:00:05.648	0.060	-0.080
00:00:05.650	-0.010	-0.090
00:00:05.652	-0.100	-0.095
00:00:05.654	-0.135	-0.095
00:00:05.656	-0.125	-0.090
00:00:05.658	-0.115	-0.080
00:00:05.660	-0.005	-0.070
00:00:05.662	0.000	-0.060
00:00:05.664	0.000	-0.055
00:00:05.666	0.090	-0.055
00:00:05.668	0.060	-0.060
00:00:05.670	-0.035	-0.070
00:00:05.672	-0.135	-0.080
00:00:05.674	-0.100	-0.085
00:00:05.676	-0.105	-0.085
00:00:05.678	-0.145	-0.080
00:00:05.680	-0.065	-0.070
00:00:05.682	0.055	-0.055
00:00:05.684	0.130	-0.040
00:00:05.686	0.175	-0.030
00:00:05.688	0.085	-0.025
00:00:05.690	0.010	-0.030
00:00:05.692	-0.035	-0.045
00:00:05.694	-0.160	-0.060
00:00:05.696	-0.175	-0.075
00:00:05.698	-0.170	-0.090
00:00:05.700	-0.075	-0.090
00:00:05.702	0.010	-0.085
00:00:05.704	0.095	-0.065
00:00:05.706	0.100	-0.040
00:00:05.708	0.130	-0.015
00:00:05.710	0.095	0.010
00:00:05.712	0.080	0.030
00:00:05.714	0.055	0.035
00:00:05.716	-0.010	0.035
00:00:05.718	-0.070	0.020
00:00:05.720	-0.015	0.005
00:00:05.722	0.035	-0.015
00:00:05.724	0.030	-0.030
00:00:05.726	0.110	-0.045
00:00:05.728	0.120	-0.045
00:00:05.730	0.105	-0.045
00:00:05.732	0.000	-0.040
00:00:05.734	-0.090	-0.030
00:00:05.736	-0.090	-0.020
00:00:05.738	-0.080	-0.015
00:00:05.740	0.005	-0.015
00:00:05.742	0.065	-0.020
00:00:05.744	0.090	-0.025
00:00:05.746	0.095	-0.035
00:00:05.748	0.005	-0.050
00:00:05.750	0.000	-0.060
00:00:05.752	0.000	-0.065
00:00:05.754	-0.135	-0.070
00:00:05.756	-0.085	-0.075
00:00:05.758	-0.095	-0.070
00:00:05.760	-0.005	-0.065
00:00:05.762	0.055	-0.060
00:00:05.764	0.075	-0.060
00:00:05.766	-0.075	-0.060
00:00:05.768	0.045	-0.060
00:00:05.770	-0.020	-0.070
00:00:05.772	-0.100	-0.080
00:00:05.774	-0.085	-0.095
00:00:05.776	-0.095	-0.105
00:00:05.778	-0.030	-0.115
00:00:05.780	-0.175	-0.115
00:00:05.782	-0.090	-0.110
00:00:05.784	0.025	-0.095
00:00:05.786	0.110	-0.080
00:00:05.788	0.065	-0.060
00:00:05.790	-0.035	-0.045
00:00:05.792	-0.110	-0.040
00:00:05.794	-0.005	-0.040
00:00:05.796	-0.075	-0.045
00:00:05.798	-0.075	-0.060
00:00:05.800	-0.100	-0.075
00:00:05.802	-0.085	-0.085
00:00:05.804	0.030	-0.095
00:00:05.806	0.070	-0.090
00:00:05.808	0.120	-0.085
00:00:05.810	0.015	-0.070
00:00:05.812	-0.090	-0.060
00:00:05.814	-0.205	-0.050
00:00:05.816	-0.055	-0.050
00:00:05.818	-0.065	-0.055
00:00:05.820	-0.030	-0.065
00:00:05.822	0.010	-0.080
00:00:05.824	-0.125	-0.095
00:00:05.826	0.015	-0.110
00:00:05.828	0.055	-0.115
00:00:05.830	0.005	-0.115
00:00:05.832	-0.090	-0.115
00:00:05.834	-0.200	-0.105
00:00:05.836	-0.130	-0.100
00:00:05.838	-0.095	-0.090
00:00:05.840	-0.090	-0.085
00:00:05.842	0.000	-0.075
00:00:05.844	-0.015	-0.055
00:00:05.846	0.095	-0.030
00:00:05.848	0.195	0.010
00:00:05.850	0.170	0.070
00:00:05.852	0.120	0.140
00:00:05.854	0.265	0.225
00:00:05.856	0.360	0.320
00:00:05.858	0.395	0.415
00:00:05.860	0.475	0.500
00:00:05.862	0.665	0.570
00:00:05.864	0.730	0.615
00:00:05.866	0.815	0.630
00:00:05.868	0.760	0.615
00:00:05.870	0.595	0.570
00:00:05.872	0.580	0.495
00:00:05.874	0.440	0.395
00:00:05.876	0.245	0.290
00:00:05.878	0.115	0.180
00:00:05.880	-0.035	0.075
00:00:05.882	0.065	-0.005
00:00:05.884	-0.045	-0.065
00:00:05.886	-0.020	-0.100
00:00:05.888	0.035	-0.110
00:00:05.890	0.055	-0.100
00:00:05.892	-0.025	-0.080
00:00:05.894	-0.055	-0.055
00:00:05.896	-0.080	-0.035
00:00:05.898	-0.060	-0.025
00:00:05.900	0.035	-0.020
00:00:05.902	0.025	-0.030
00:00:05.904	0.030	-0.035
00:00:05.906	0.070	-0.045
00:00:05.908	0.150	-0.045
00:00:05.910	0.005	-0.040
00:00:05.912	-0.090	-0.035
00:00:05.914	-0.035	-0.020
00:00:05.916	0.015	-0.005
00:00:05.918	-0.005	0.000
00:00:05.920	-0.010	0.005
00:00:05.922	0.085	0.005
00:00:05.924	0.135	0.000
00:00:05.926	0.040	-0.010
00:00:05.928	0.110	-0.015
00:00:05.930	0.060	-0.025
00:00:05.932	-0.075	-0.025
00:00:05.934	-0.060	-0.030
00:00:05.936	-0.035	-0.030
00:00:05.938	0.070	-0.035
00:00:05.940	-0.015	-0.040
00:00:05.942	-0.035	-0.050
00:00:05.944	0.060	-0.055
00:00:05.946	0.075	-0.060
00:00:05.948	-0.025	-0.060
00:00:05.950	0.035	-0.050
00:00:05.952	-0.060	-0.035
00:00:05.954	-0.035	-0.010
00:00:05.956	0.040	0.015
00:00:05.958	0.080	0.040
00:00:05.960	0.105	0.055
00:00:05.962	0.170	0.055
00:00:05.964	0.155	0.050
00:00:05.966	0.130	0.035
00:00:05.968	0.010	0.015
00:00:05.970	0.030	-0.005
00:00:05.972	-0.025	-0.020
00:00:05.974	-0.035	-0.025
00:00:05.976	-0.030	-0.020
00:00:05.978	0.005	-0.010
00:00:05.980	0.070	0.005
00:00:05.982	0.180	0.020
00:00:05.984	0.165	0.030
00:00:05.986	0.085	0.035
00:00:05.988	0.095	0.035
00:00:05.990	0.090	0.025
00:00:05.992	0.035	0.015
00:00:05.994	-0.100	0.005
00:00:05.996	-0.055	0.005
00:00:05.998	0.065	0.005
00:00:06.000	0.160	0.015
00:00:06.002	0.130	0.025
00:00:06.004	0.090	0.035
00:00:06.006	0.190	0.045
00:00:06.008	0.155	0.050
00:00:06.010	0.050	0.045
00:00:06.012	-0.010	0.040
00:00:06.014	-0.035	0.035
00:00:06.016	0.005	0.035
00:00:06.018	0.110	0.040
00:00:06.020	0.060	0.050
00:00:06.022	0.175	0.065
00:00:06.024	0.240	0.085
00:00:06.026	0.360	0.105
00:00:06.028	0.210	0.120
00:00:06.030	0.165	0.130
00:00:06.032	0.045	0.130
00:00:06.034	0.005	0.125
00:00:06.036	0.030	0.120
00:00:06.038	0.180	0.115
00:00:06.040	0.195	0.115
00:00:06.042	0.255	0.120
00:00:06.044	0.245	0.130
00:00:06.046	0.235	0.145
00:00:06.048	0.310	0.160
00:00:06.050	0.215	0.170
00:00:06.052	0.065	0.180
00:00:06.054	0.145	0.180
00:00:06.056	0.165	0.175
00:00:06.058	0.120	0.170
00:00:06.060	0.165	0.165
00:00:06.062	0.325	0.170
00:00:06.064	0.295	0.180
00:00:06.066	0.350	0.200
00:00:06.068	0.370	0.220
00:00:06.070	0.325	0.245
00:00:06.072	0.240	0.260
00:00:06.074	0.145	0.265
00:00:06.076	0.215	0.265
00:00:06.078	0.240	0.255
00:00:06.080	0.315	0.240
00:00:06.082	0.405	0.230
00:00:06.084	0.330	0.225
00:00:06.086	0.335	0.225
00:00:06.088	0.390	0.240
00:00:06.090	0.230	0.260
00:00:06.092	0.280	0.280
00:00:06.094	0.315	0.300
00:00:06.096	0.295	0.315
00:00:06.098	0.300	0.320
00:00:06.100	0.305	0.315
00:00:06.102	0.330	0.300
00:00:06.104	0.380	0.280
00:00:06.106	0.395	0.255
00:00:06.108	0.310	0.235
00:00:06.110	0.255	0.220
00:00:06.112	0.195	0.210
00:00:06.114	0.145	0.200
00:00:06.116	0.145	0.200
00:00:06.118	0.170	0.195
00:00:06.120	0.220	0.185
00:00:06.122	0.250	0.175
00:00:06.124	0.300	0.155
00:00:06.126	0.330	0.135
00:00:06.128	0.225	0.115
00:00:06.130	0.135	0.095
00:00:06.132	-0.060	0.080
00:00:06.134	0.020	0.060
00:00:06.136	0.055	0.050
00:00:06.138	0.075	0.035
00:00:06.140	0.060	0.025
00:00:06.142	0.070	0.010
00:00:06.144	0.075	0.000
00:00:06.146	0.050	-0.010
00:00:06.148	0.075	-0.020
00:00:06.150	0.050	-0.030
00:00:06.152	-0.010	-0.035
00:00:06.154	0.005	-0.035
00:00:06.156	-0.115	-0.035
00:00:06.158	-0.075	-0.035
00:00:06.160	-0.005	-0.035
00:00:06.162	0.110	-0.040
00:00:06.164	0.100	-0.040
00:00:06.166	0.125	-0.045
00:00:06.168	0.010	-0.045
00:00:06.170	-0.030	-0.050
00:00:06.172	-0.040	-0.045
00:00:06.174	-0.130	-0.045
00:00:06.176	-0.080	-0.040
00:00:06.178	-0.015	-0.035
00:00:06.180	0.125	-0.035
00:00:06.182	0.145	-0.035
00:00:06.184	0.050	-0.040
00:00:06.186	-0.035	-0.050
00:00:06.188	-0.060	-0.060
00:00:06.190	-0.040	-0.070
00:00:06.192	-0.075	-0.080
00:00:06.194	-0.065	-0.085
00:00:06.196	-0.090	-0.080
00:00:06.198	-0.075	-0.075
00:00:06.200	-0.045	-0.065
00:00:06.202	0.110	-0.050
00:00:06.204	0.090	-0.040
00:00:06.206	0.060	-0.030
00:00:06.208	-0.005	-0.025
00:00:06.210	-0.020	-0.030
00:00:06.212	-0.095	-0.040
00:00:06.214	-0.065	-0.055
00:00:06.216	-0.060	-0.070
00:00:06.218	-0.060	-0.085
00:00:06.220	-0.015	-0.100
00:00:06.222	0.045	-0.105
00:00:06.224	0.035	-0.105
00:00:06.226	-0.070	-0.100
00:00:06.228	-0.095	-0.090
00:00:06.230	-0.070	-0.075
00:00:06.232	-0.085	-0.060
00:00:06.234	0.045	-0.045
00:00:06.236	0.025	-0.035
00:00:06.238	-0.065	-0.025
00:00:06.240	0.060	-0.020
00:00:06.242	0.095	-0.025
00:00:06.244	0.095	-0.030
00:00:06.246	0.075	-0.035
00:00:06.248	-0.035	-0.045
00:00:06.250	-0.105	-0.050
00:00:06.252	-0.095	-0.060
00:00:06.254	-0.040	-0.065
00:00:06.256	-0.025	-0.070
00:00:06.258	-0.050	-0.075
00:00:06.260	-0.020	-0.075
00:00:06.262	0.090	-0.070
00:00:06.264	0.115	-0.065
00:00:06.266	0.025	-0.055
00:00:06.268	-0.075	-0.040
00:00:06.270	-0.230	-0.025
00:00:06.272	0.005	-0.010
00:00:06.274	0.100	0.005
00:00:06.276	0.095	0.010
00:00:06.278	0.095	0.015
00:00:06.280	0.055	0.010
00:00:06.282	0.020	0.000
00:00:06.284	0.085	-0.020
00:00:06.286	0.000	-0.040
00:00:06.288	-0.040	-0.060
00:00:06.290	-0.065	-0.085
00:00:06.292	-0.120	-0.100
00:00:06.294	-0.100	-0.110
00:00:06.296	-0.080	-0.115
00:00:06.298	-0.045	-0.110
00:00:06.300	-0.005	-0.105
00:00:06.302	-0.035	-0.090
00:00:06.304	0.030	-0.075
00:00:06.306	-0.025	-0.055
00:00:06.308	-0.020	-0.040
00:00:06.310	0.055	-0.030
00:00:06.312	-0.035	-0.020
00:00:06.314	-0.030	-0.015
00:00:06.316	-0.005	-0.015
00:00:06.318	0.035	-0.015
00:00:06.320	0.055	-0.020
00:00:06.322	0.130	-0.030
00:00:06.324	0.035	-0.040
00:00:06.326	-0.010	-0.050
00:00:06.328	0.025	-0.060
00:00:06.330	-0.115	-0.065
00:00:06.332	-0.150	-0.070
00:00:06.334	-0.170	-0.075
00:00:06.336	-0.040	-0.070
00:00:06.338	0.065	-0.065
00:00:06.340	0.150	-0.060
00:00:06.342	0.060	-0.050
00:00:06.344	0.030	-0.045
00:00:06.346	-0.060	-0.035
00:00:06.348	-0.070	-0.035
00:00:06.350	0.000	-0.035
00:00:06.352	-0.050	-0.040
00:00:06.354	-0.045	-0.050
00:00:06.356	0.025	-0.060
00:00:06.358	-0.095	-0.070
00:00:06.360	-0.050	-0.075
00:00:06.362	0.100	-0.080
00:00:06.364	0.050	-0.080
00:00:06.366	-0.080	-0.075
00:00:06.368	-0.045	-0.065
00:00:06.370	-0.085	-0.055
00:00:06.372	-0.065	-0.045
00:00:06.374	-0.060	-0.035
00:00:06.376	0.020	-0.030
00:00:06.378	0.090	-0.025
00:00:06.380	0.080	-0.025
00:00:06.382	0.045	-0.030
00:00:06.384	0.045	-0.035
00:00:06.386	0.060	-0.045
00:00:06.388	-0.030	-0.055
00:00:06.390	-0.060	-0.060
00:00:06.392	-0.115	-0.070
00:00:06.394	-0.175	-0.075
00:00:06.396	-0.030	-0.075
00:00:06.398	0.020	-0.070
00:00:06.400	-0.030	-0.065
00:00:06.402	0.060	-0.060
00:00:06.404	0.110	-0.055
00:00:06.406	0.050	-0.050
00:00:06.408	-0.060	-0.055
00:00:06.410	-0.070	-0.055
00:00:06.412	-0.150	-0.060
00:00:06.414	-0.095	-0.070
00:00:06.416	-0.035	-0.075
00:00:06.418	0.005	-0.080
00:00:06.420	0.030	-0.080
00:00:06.422	0.055	-0.075
00:00:06.424	0.010	-0.070
00:00:06.426	-0.015	-0.065
00:00:06.428	-0.065	-0.055
00:00:06.430	-0.040	-0.055
00:00:06.432	-0.120	-0.055
00:00:06.434	-0.075	-0.060
00:00:06.436	0.015	-0.065
00:00:06.438	0.055	-0.075
00:00:06.440	-0.020	-0.080
00:00:06.442	0.005	-0.085
00:00:06.444	0.070	-0.085
00:00:06.446	-0.090	-0.080
00:00:06.448	-0.110	-0.075
00:00:06.450	-0.030	-0.065
00:00:06.452	-0.055	-0.055
00:00:06.454	0.000	-0.050
00:00:06.456	-0.045	-0.045
00:00:06.458	0.045	-0.045
00:00:06.460	0.050	-0.050
00:00:06.462	-0.015	-0.055
00:00:06.464	0.010	-0.060
00:00:06.466	0.035	-0.065
00:00:06.468	-0.050	-0.070
00:00:06.470	-0.110	-0.075
00:00:06.472	-0.125	-0.075
00:00:06.474	-0.090	-0.075
00:00:06.476	-0.030	-0.070
00:00:06.478	0.070	-0.070
00:00:06.480	0.045	-0.065
00:00:06.482	0.015	-0.060
00:00:06.484	-0.020	-0.060
00:00:06.486	0.030	-0.060
00:00:06.488	-0.020	-0.060
00:00:06.490	-0.085	-0.065
00:00:06.492	-0.170	-0.070
00:00:06.494	-0.065	-0.070
00:00:06.496	-0.070	-0.070
00:00:06.498	-0.030	-0.065
00:00:06.500	0.005	-0.055
00:00:06.502	0.130	-0.045
00:00:06.504	0.095	-0.030
00:00:06.506	-0.010	-0.020
00:00:06.508	0.030	-0.005
00:00:06.510	-0.020	0.000
00:00:06.512	-0.050	0.000
00:00:06.514	-0.065	-0.005
00:00:06.516	-0.040	-0.015
00:00:06.518	0.005	-0.025
00:00:06.520	0.125	-0.040
00:00:06.522	0.040	-0.045
00:00:06.524	0.075	-0.050
00:00:06.526	0.095	-0.045
00:00:06.528	-0.045	-0.040
00:00:06.530	-0.045	-0.025
00:00:06.532	-0.090	-0.005
00:00:06.534	0.005	0.010
00:00:06.536	0.090	0.025
00:00:06.538	0.065	0.035
00:00:06.540	0.070	0.040
00:00:06.542	0.205	0.035
00:00:06.544	0.175	0.030
00:00:06.546	0.070	0.025
00:00:06.548	-0.015	0.015
00:00:06.550	-0.050	0.000
00:00:06.552	-0.010	-0.010
00:00:06.554	0.015	-0.025
00:00:06.556	0.000	-0.040
00:00:06.558	-0.005	-0.055
00:00:06.560	-0.010	-0.075
00:00:06.562	0.030	-0.085
00:00:06.564	-0.050	-0.095
00:00:06.566	-0.070	-0.100
00:00:06.568	-0.105	-0.100
00:00:06.570	-0.080	-0.090
00:00:06.572	-0.055	-0.070
00:00:06.574	-0.040	-0.050
00:00:06.576	0.015	-0.035
00:00:06.578	0.090	-0.020
00:00:06.580	0.075	-0.020
00:00:06.582	0.055	-0.030
00:00:06.584	0.005	-0.045
00:00:06.586	-0.090	-0.075
00:00:06.588	-0.110	-0.105
00:00:06.590	-0.170	-0.130
00:00:06.592	-0.150	-0.150
00:00:06.594	-0.180	-0.160
00:00:06.596	-0.095	-0.155
00:00:06.598	-0.045	-0.140
00:00:06.600	-0.020	-0.120
00:00:06.602	0.055	-0.095
00:00:06.604	0.090	-0.070
00:00:06.606	0.010	-0.050
00:00:06.608	-0.095	-0.040
00:00:06.610	-0.175	-0.035
00:00:06.612	-0.100	-0.040
00:00:06.614	0.010	-0.055
00:00:06.616	0.035	-0.065
00:00:06.618	0.000	-0.080
00:00:06.620	0.040	-0.090
00:00:06.622	-0.035	-0.100
00:00:06.624	-0.085	-0.105
00:00:06.626	-0.030	-0.110
00:00:06.628	-0.095	-0.110
00:00:06.630	-0.210	-0.110
00:00:06.632	-0.145	-0.110
00:00:06.634	-0.070	-0.110
00:00:06.636	-0.055	-0.105
00:00:06.638	-0.070	-0.100
00:00:06.640	0.010	-0.095
00:00:06.642	0.090	-0.095
00:00:06.644	0.065	-0.095
00:00:06.646	-0.020	-0.095
00:00:06.648	-0.165	-0.100
00:00:06.650	-0.170	-0.105
00:00:06.652	-0.220	-0.110
00:00:06.654	-0.190	-0.115
00:00:06.656	-0.075	-0.105
00:00:06.658	0.055	-0.085
00:00:06.660	0.155	-0.045
00:00:06.662	0.120	0.010
00:00:06.664	0.225	0.080
00:00:06.666	0.180	0.160
00:00:06.668	0.185	0.255
00:00:06.670	0.265	0.350
00:00:06.672	0.435	0.440
00:00:06.674	0.615	0.525
00:00:06.676	0.715	0.590
00:00:06.678	0.745	0.635
00:00:06.680	0.800	0.660
00:00:06.682	0.815	0.650
00:00:06.684	0.720	0.610
00:00:06.686	0.545	0.535
00:00:06.688	0.380	0.440
00:00:06.690	0.265	0.325
00:00:06.692	0.165	0.200
00:00:06.694	0.050	0.075
00:00:06.696	0.000	-0.030
00:00:06.698	-0.135	-0.110
00:00:06.700	-0.115	-0.165
00:00:06.702	-0.085	-0.180
00:00:06.704	-0.035	-0.175
00:00:06.706	-0.070	-0.145
00:00:06.708	-0.030	-0.105
00:00:06.710	-0.125	-0.070
00:00:06.712	-0.080	-0.045
00:00:06.714	-0.030	-0.030
00:00:06.716	0.020	-0.030
00:00:06.718	0.020	-0.045
00:00:06.720	-0.005	-0.060
00:00:06.722	-0.090	-0.080
00:00:06.724	0.040	-0.085
00:00:06.726	0.020	-0.085
00:00:06.728	-0.030	-0.075
00:00:06.730	-0.095	-0.060
00:00:06.732	-0.085	-0.045
00:00:06.734	-0.060	-0.035
00:00:06.736	0.050	-0.030
00:00:06.738	0.075	-0.030
00:00:06.740	0.050	-0.040
00:00:06.742	-0.005	-0.055
00:00:06.744	-0.030	-0.070
00:00:06.746	-0.030	-0.085
00:00:06.748	-0.020	-0.090
00:00:06.750	-0.110	-0.095
00:00:06.752	-0.150	-0.095
00:00:06.754	-0.075	-0.090
00:00:06.756	-0.020	-0.085
00:00:06.758	-0.030	-0.085
00:00:06.760	0.025	-0.080
00:00:06.762	0.025	-0.075
00:00:06.764	-0.035	-0.065
00:00:06.766	-0.035	-0.055
00:00:06.768	-0.075	-0.040
00:00:06.770	-0.025	-0.020
00:00:06.772	0.045	-0.005
00:00:06.774	0.075	0.005
00:00:06.776	0.060	0.015
00:00:06.778	0.085	0.015
00:00:06.780	0.085	0.005
00:00:06.782	0.070	-0.005
00:00:06.784	0.015	-0.015
00:00:06.786	-0.055	-0.030
00:00:06.788	-0.085	-0.035
00:00:06.790	-0.050	-0.035
00:00:06.792	-0.030	-0.035
00:00:06.794	-0.010	-0.025
00:00:06.796	0.050	-0.020
00:00:06.798	0.130	-0.010
00:00:06.800	0.130	-0.010
00:00:06.802	0.045	-0.010
00:00:06.804	0.005	-0.010
00:00:06.806	-0.010	-0.015
00:00:06.808	-0.025	-0.020
00:00:06.810	-0.030	-0.020
00:00:06.812	-0.010	-0.020
00:00:06.814	0.050	-0.015
00:00:06.816	0.125	-0.005
00:00:06.818	0.060	0.005
00:00:06.820	0.080	0.015
00:00:06.822	0.140	0.025
00:00:06.824	0.135	0.030
00:00:06.826	0.020	0.035
00:00:06.828	0.020	0.035
00:00:06.830	-0.005	0.035
00:00:06.832	-0.050	0.035
00:00:06.834	0.055	0.035
00:00:06.836	0.160	0.040
00:00:06.838	0.185	0.045
00:00:06.840	0.150	0.050
00:00:06.842	0.190	0.060
00:00:06.844	0.055	0.070
00:00:06.846	-0.020	0.085
00:00:06.848	0.055	0.095
00:00:06.850	0.170	0.100
00:00:06.852	0.140	0.110
00:00:06.854	0.130	0.115
00:00:06.856	0.145	0.120
00:00:06.858	0.220	0.120
00:00:06.860	0.255	0.120
00:00:06.862	0.170	0.125
00:00:06.864	0.165	0.125
00:00:06.866	0.230	0.130
00:00:06.868	0.105	0.140
00:00:06.870	0.070	0.150
00:00:06.872	0.150	0.160
00:00:06.874	0.185	0.170
00:00:06.876	0.305	0.185
00:00:06.878	0.360	0.195
00:00:06.880	0.305	0.210
00:00:06.882	0.265	0.220
00:00:06.884	0.295	0.230
00:00:06.886	0.235	0.235
00:00:06.888	0.165	0.240
00:00:06.890	0.150	0.240
00:00:06.892	0.235	0.240
00:00:06.894	0.285	0.240
00:00:06.896	0.250	0.235
00:00:06.898	0.400	0.230
00:00:06.900	0.350	0.225
00:00:06.902	0.335	0.220
00:00:06.904	0.320	0.220
00:00:06.906	0.205	0.220
00:00:06.908	0.180	0.225
00:00:06.910	0.150	0.230
00:00:06.912	0.150	0.235
00:00:06.914	0.265	0.245
00:00:06.916	0.290	0.250
00:00:06.918	0.405	0.255
00:00:06.920	0.510	0.255
00:00:06.922	0.360	0.255
00:00:06.924	0.250	0.255
00:00:06.926	0.220	0.245
00:00:06.928	0.235	0.230
00:00:06.930	0.180	0.210
00:00:06.932	0.120	0.190
00:00:06.934	0.125	0.165
00:00:06.936	0.175	0.135
00:00:06.938	0.240	0.115
00:00:06.940	0.220	0.095
00:00:06.942	0.190	0.085
00:00:06.944	0.105	0.080
00:00:06.946	0.035	0.080
00:00:06.948	0.080	0.085
00:00:06.950	0.000	0.085
00:00:06.952	0.080	0.085
00:00:06.954	0.110	0.075
00:00:06.956	0.120	0.060
00:00:06.958	0.160	0.035
00:00:06.960	0.085	0.010
00:00:06.962	0.025	-0.015
00:00:06.964	-0.050	-0.035
00:00:06.966	-0.065	-0.045
00:00:06.968	0.015	-0.045
00:00:06.970	-0.090	-0.040
00:00:06.972	-0.015	-0.030
00:00:06.974	0.035	-0.020
00:00:06.976	0.055	-0.015
00:00:06.978	0.070	-0.020
00:00:06.980	0.090	-0.030
00:00:06.982	0.015	-0.040
00:00:06.984	-0.075	-0.060
00:00:06.986	-0.070	-0.070
00:00:06.988	-0.140	-0.080
00:00:06.990	-0.170	-0.080
00:00:06.992	-0.020	-0.075
00:00:06.994	0.025	-0.060
00:00:06.996	0.060	-0.045
00:00:06.998	0.050	-0.035
00:00:07.000	0.095	-0.025
00:00:07.002	0.020	-0.030
00:00:07.004	-0.060	-0.035
00:00:07.006	-0.100	-0.050
00:00:07.008	-0.110	-0.065
00:00:07.010	-0.105	-0.080
00:00:07.012	-0.080	-0.090
00:00:07.014	-0.065	-0.095
00:00:07.016	0.015	-0.095
00:00:07.018	0.005	-0.095
00:00:07.020	0.010	-0.085
00:00:07.022	0.010	-0.080
00:00:07.024	-0.065	-0.075
00:00:07.026	-0.125	-0.075
00:00:07.028	-0.065	-0.075
00:00:07.030	-0.090	-0.080
00:00:07.032	-0.170	-0.080
00:00:07.034	-0.045	-0.080
00:00:07.036	0.025	-0.080
00:00:07.038	0.085	-0.075
00:00:07.040	0.070	-0.070
00:00:07.042	0.030	-0.070
00:00:07.044	-0.105	-0.065
00:00:07.046	-0.110	-0.065
00:00:07.048	-0.135	-0.070
00:00:07.050	-0.105	-0.070
00:00:07.052	-0.025	-0.075
00:00:07.054	0.080	-0.075
00:00:07.056	0.060	-0.070
00:00:07.058	0.020	-0.065
00:00:07.060	-0.030	-0.060
00:00:07.062	-0.005	-0.050
00:00:07.064	-0.090	-0.045
00:00:07.066	-0.130	-0.040
00:00:07.068	-0.050	-0.040
00:00:07.070	-0.005	-0.040
00:00:07.072	-0.015	-0.045
00:00:07.074	-0.050	-0.050
00:00:07.076	0.105	-0.050
00:00:07.078	0.055	-0.050
00:00:07.080	-0.015	-0.045
00:00:07.082	0.000	-0.040
00:00:07.084	0.010	-0.035
00:00:07.086	-0.040	-0.030
00:00:07.088	-0.095	-0.030
00:00:07.090	-0.095	-0.035
00:00:07.092	-0.080	-0.040
00:00:07.094	-0.015	-0.055
00:00:07.096	0.125	-0.065
00:00:07.098	0.165	-0.075
00:00:07.100	-0.005	-0.080
00:00:07.102	-0.075	-0.080
00:00:07.104	-0.135	-0.075
00:00:07.106	-0.055	-0.065
00:00:07.108	-0.140	-0.060
00:00:07.110	-0.130	-0.060
00:00:07.112	-0.050	-0.060
00:00:07.114	0.065	-0.070
00:00:07.116	0.125	-0.075
00:00:07.118	0.020	-0.085
00:00:07.120	-0.080	-0.090
00:00:07.122	-0.105	-0.090
00:00:07.124	-0.080	-0.085
00:00:07.126	-0.045	-0.070
00:00:07.128	-0.100	-0.060
00:00:07.130	-0.035	-0.045
00:00:07.132	-0.030	-0.035
00:00:07.134	0.045	-0.030
00:00:07.136	0.080	-0.030
00:00:07.138	0.060	-0.030
00:00:07.140	0.040	-0.035
00:00:07.142	0.040	-0.040
00:00:07.144	-0.075	-0.045
00:00:07.146	-0.080	-0.045
00:00:07.148	-0.055	-0.045
00:00:07.150	-0.065	-0.045
00:00:07.152	0.000	-0.050
00:00:07.154	0.060	-0.055
00:00:07.156	0.080	-0.065
00:00:07.158	-0.030	-0.075
00:00:07.160	-0.035	-0.090
00:00:07.162	-0.110	-0.100
00:00:07.164	-0.120	-0.100
00:00:07.166	-0.110	-0.100
00:00:07.168	-0.105	-0.090
00:00:07.170	-0.125	-0.080
00:00:07.172	0.025	-0.065
00:00:07.174	0.105	-0.055
00:00:07.176	0.025	-0.045
00:00:07.178	-0.015	-0.040
00:00:07.180	0.010	-0.045
00:00:07.182	-0.040	-0.050
00:00:07.184	-0.055	-0.055
00:00:07.186	-0.030	-0.065
00:00:07.188	-0.060	-0.070
00:00:07.190	-0.085	-0.075
00:00:07.192	-0.125	-0.080
00:00:07.194	-0.040	-0.085
00:00:07.196	0.045	-0.090
00:00:07.198	0.020	-0.095
00:00:07.200	-0.050	-0.095
00:00:07.202	-0.140	-0.100
00:00:07.204	-0.095	-0.095
00:00:07.206	-0.075	-0.090
00:00:07.208	-0.110	-0.080
00:00:07.210	-0.035	-0.065
00:00:07.212	0.015	-0.050
00:00:07.214	0.080	-0.040
00:00:07.216	0.080	-0.035
00:00:07.218	0.020	-0.035
00:00:07.220	-0.070	-0.040
00:00:07.222	0.010	-0.050
00:00:07.224	-0.110	-0.065
00:00:07.226	-0.105	-0.075
00:00:07.228	-0.085	-0.085
00:00:07.230	-0.090	-0.090
00:00:07.232	0.015	-0.085
00:00:07.234	-0.050	-0.080
00:00:07.236	-0.070	-0.070
00:00:07.238	0.090	-0.065
00:00:07.240	0.035	-0.060
00:00:07.242	-0.065	-0.060
00:00:07.244	-0.155	-0.065
00:00:07.246	-0.085	-0.075
00:00:07.248	-0.145	-0.090
00:00:07.250	-0.080	-0.100
00:00:07.252	-0.005	-0.105
00:00:07.254	0.040	-0.105
00:00:07.256	0.055	-0.105
00:00:07.258	0.005	-0.095
00:00:07.260	-0.050	-0.090
00:00:07.262	-0.145	-0.085
00:00:07.264	-0.115	-0.085
00:00:07.266	-0.170	-0.085
00:00:07.268	-0.090	-0.085
00:00:07.270	-0.095	-0.090
00:00:07.272	-0.015	-0.090
00:00:07.274	0.085	-0.090
00:00:07.276	0.050	-0.090
00:00:07.278	0.010	-0.085
00:00:07.280	-0.030	-0.085
00:00:07.282	-0.080	-0.080
00:00:07.284	-0.070	-0.080
00:00:07.286	-0.120	-0.075
00:00:07.288	-0.190	-0.075
00:00:07.290	-0.070	-0.070
00:00:07.292	-0.010	-0.065
00:00:07.294	0.045	-0.060
00:00:07.296	0.075	-0.050
00:00:07.298	0.120	-0.045
00:00:07.300	0.100	-0.040
00:00:07.302	-0.005	-0.035
00:00:07.304	-0.115	-0.035
00:00:07.306	-0.100	-0.040
00:00:07.308	-0.165	-0.050
00:00:07.310	-0.055	-0.060
00:00:07.312	0.035	-0.065
00:00:07.314	-0.075	-0.070
00:00:07.316	0.120	-0.070
00:00:07.318	0.110	-0.065
00:00:07.320	-0.010	-0.055
00:00:07.322	-0.025	-0.045
00:00:07.324	-0.055	-0.030
00:00:07.326	-0.110	-0.015
00:00:07.328	-0.060	-0.005
00:00:07.330	-0.015	0.010
00:00:07.332	0.075	0.015
00:00:07.334	0.095	0.020
00:00:07.336	0.210	0.025
00:00:07.338	0.195	0.025
00:00:07.340	0.110	0.020
00:00:07.342	-0.025	0.015
00:00:07.344	-0.035	0.010
00:00:07.346	-0.025	0.005
00:00:07.348	-0.080	0.000
00:00:07.350	-0.055	-0.005
00:00:07.352	-0.010	-0.010
00:00:07.354	0.135	-0.010
00:00:07.356	0.105	-0.010
00:00:07.358	0.110	-0.010
00:00:07.360	0.140	-0.010
00:00:07.362	0.010	-0.010
00:00:07.364	-0.075	-0.020
00:00:07.366	-0.055	-0.030
00:00:07.368	-0.095	-0.045
00:00:07.370	-0.170	-0.060
00:00:07.372	-0.165	-0.070
00:00:07.374	0.060	-0.080
00:00:07.376	0.135	-0.085
00:00:07.378	0.015	-0.080
00:00:07.380	0.040	-0.075
00:00:07.382	0.005	-0.065
00:00:07.384	-0.045	-0.055
00:00:07.386	-0.065	-0.050
00:00:07.388	-0.090	-0.045
00:00:07.390	-0.175	-0.045
00:00:07.392	-0.040	-0.045
00:00:07.394	-0.010	-0.050
00:00:07.396	0.070	-0.050
00:00:07.398	0.090	-0.050
00:00:07.400	0.060	-0.050
00:00:07.402	0.020	-0.045
00:00:07.404	-0.050	-0.035
00:00:07.406	-0.100	-0.025
00:00:07.408	-0.055	-0.020
00:00:07.410	-0.030	-0.020
00:00:07.412	0.015	-0.025
00:00:07.414	0.085	-0.035
00:00:07.416	0.050	-0.055
00:00:07.418	0.000	-0.075
00:00:07.420	-0.045	-0.095
00:00:07.422	-0.155	-0.110
00:00:07.424	-0.180	-0.125
00:00:07.426	-0.115	-0.130
00:00:07.428	-0.150	-0.125
00:00:07.430	-0.110	-0.120
00:00:07.432	0.035	-0.105
00:00:07.434	-0.050	-0.085
00:00:07.436	-0.020	-0.065
00:00:07.438	0.060	-0.050
00:00:07.440	0.075	-0.040
00:00:07.442	0.060	-0.035
00:00:07.444	-0.055	-0.035
00:00:07.446	-0.080	-0.050
00:00:07.448	-0.150	-0.070
00:00:07.450	-0.075	-0.090
00:00:07.452	-0.115	-0.115
00:00:07.454	-0.070	-0.135
00:00:07.456	-0.075	-0.145
00:00:07.458	-0.050	-0.155
00:00:07.460	-0.075	-0.150
00:00:07.462	-0.135	-0.135
00:00:07.464	-0.205	-0.110
00:00:07.466	-0.140	-0.080
00:00:07.468	-0.110	-0.040
00:00:07.470	0.075	0.010
00:00:07.472	0.215	0.065
00:00:07.474	0.220	0.130
00:00:07.476	0.335	0.200
00:00:07.478	0.335	0.280
00:00:07.480	0.375	0.365
00:00:07.482	0.455	0.445
00:00:07.484	0.545	0.520
00:00:07.486	0.605	0.580
00:00:07.488	0.675	0.620
00:00:07.490	0.700	0.635
00:00:07.492	0.620	0.620
00:00:07.494	0.670	0.570
00:00:07.496	0.675	0.495
00:00:07.498	0.485	0.400
00:00:07.500	0.290	0.290
00:00:07.502	0.095	0.175
00:00:07.504	-0.045	0.065
00:00:07.506	-0.145	-0.030
00:00:07.508	-0.140	-0.105
00:00:07.510	-0.060	-0.155
00:00:07.512	-0.045	-0.180
00:00:07.514	-0.130	-0.180
00:00:07.516	-0.115	-0.165
00:00:07.518	-0.145	-0.130
00:00:07.520	-0.130	-0.090
00:00:07.522	-0.025	-0.050
00:00:07.524	0.105	-0.015
00:00:07.526	0.020	0.005
00:00:07.528	0.015	0.015
00:00:07.530	0.030	0.010
00:00:07.532	-0.065	-0.010
00:00:07.534	0.020	-0.030
00:00:07.536	0.100	-0.055
00:00:07.538	0.015	-0.070
00:00:07.540	-0.090	-0.080
00:00:07.542	-0.145	-0.080
00:00:07.544	-0.060	-0.070
00:00:07.546	-0.065	-0.050
00:00:07.548	-0.030	-0.030
00:00:07.550	0.130	-0.015
00:00:07.552	0.045	-0.005
00:00:07.554	0.075	0.000
00:00:07.556	0.075	0.000
00:00:07.558	0.020	-0.005
00:00:07.560	0.015	-0.020
00:00:07.562	-0.090	-0.030
00:00:07.564	-0.100	-0.035
00:00:07.566	-0.010	-0.035
00:00:07.568	0.010	-0.035
00:00:07.570	0.045	-0.025
00:00:07.572	0.100	-0.015
00:00:07.574	0.085	-0.005
00:00:07.576	0.060	0.010
00:00:07.578	0.040	0.015
00:00:07.580	-0.010	0.015
00:00:07.582	-0.050	0.015
00:00:07.584	-0.055	0.005
00:00:07.586	-0.030	-0.010
00:00:07.588	-0.005	-0.025
00:00:07.590	0.080	-0.040
00:00:07.592	0.055	-0.050
00:00:07.594	0.065	-0.060
00:00:07.596	0.045	-0.060
00:00:07.598	-0.050	-0.050
00:00:07.600	-0.040	-0.040
00:00:07.602	-0.125	-0.020
00:00:07.604	-0.150	0.000
00:00:07.606	0.045	0.020
00:00:07.608	0.120	0.030
00:00:07.610	0.135	0.040
00:00:07.612	0.155	0.040
00:00:07.614	0.170	0.035
00:00:07.616	0.065	0.025
00:00:07.618	0.060	0.015
00:00:07.620	-0.100	0.010
00:00:07.622	-0.020	0.005
00:00:07.624	0.050	0.005
00:00:07.626	-0.025	0.010
00:00:07.628	0.010	0.015
00:00:07.630	0.045	0.025
00:00:07.632	0.125	0.035
00:00:07.634	0.135	0.045
00:00:07.636	0.120	0.050
00:00:07.638	0.120	0.055
00:00:07.640	0.045	0.060
00:00:07.642	0.045	0.065
00:00:07.644	0.045	0.065
00:00:07.646	0.050	0.065
00:00:07.648	0.095	0.070
00:00:07.650	0.110	0.070
00:00:07.652	0.175	0.070
00:00:07.654	0.225	0.065
00:00:07.656	0.095	0.070
00:00:07.658	0.115	0.070
00:00:07.660	0.015	0.075
00:00:07.662	0.050	0.080
00:00:07.664	0.060	0.095
00:00:07.666	0.170	0.105
00:00:07.668	0.155	0.125
00:00:07.670	0.210	0.140
00:00:07.672	0.270	0.155
00:00:07.674	0.270	0.165
00:00:07.676	0.255	0.175
00:00:07.678	0.195	0.185
00:00:07.680	0.130	0.190
00:00:07.682	0.205	0.195
00:00:07.684	0.145	0.200
00:00:07.686	0.235	0.210
00:00:07.688	0.225	0.225
00:00:07.690	0.220	0.240
00:00:07.692	0.295	0.255
00:00:07.694	0.455	0.265
00:00:07.696	0.430	0.270
00:00:07.698	0.320	0.270
00:00:07.700	0.205	0.265
00:00:07.702	0.175	0.255
00:00:07.704	0.190	0.245
00:00:07.706	0.180	0.235
00:00:07.708	0.245	0.230
00:00:07.710	0.365	0.230
00:00:07.712	0.375	0.235
00:00:07.714	0.380	0.240
00:00:07.716	0.330	0.250
00:00:07.718	0.265	0.255
00:00:07.720	0.170	0.255
00:00:07.722	0.115	0.255
00:00:07.724	0.235	0.250
00:00:07.726	0.285	0.240
00:00:07.728	0.290	0.235
00:00:07.730	0.275	0.230
00:00:07.732	0.365	0.235
00:00:07.734	0.365	0.240
00:00:07.736	0.315	0.250
00:00:07.738	0.240	0.250
00:00:07.740	0.230	0.250
00:00:07.742	0.160	0.235
00:00:07.744	0.135	0.215
00:00:07.746	0.165	0.180
00:00:07.748	0.170	0.145
00:00:07.750	0.165	0.110
00:00:07.752	0.160	0.080
00:00:07.754	0.130	0.065
00:00:07.756	0.085	0.060
00:00:07.758	0.055	0.065
00:00:07.760	0.125	0.080
00:00:07.762	0.090	0.095
00:00:07.764	0.030	0.100
00:00:07.766	0.040	0.100
00:00:07.768	0.120	0.080
00:00:07.770	0.210	0.055
00:00:07.772	0.100	0.020
00:00:07.774	0.080	-0.015
00:00:07.776	-0.035	-0.045
00:00:07.778	-0.080	-0.060
00:00:07.780	-0.080	-0.060
00:00:07.782	-0.120	-0.055
00:00:07.784	-0.035	-0.035
00:00:07.786	0.025	-0.020
00:00:07.788	0.030	-0.005
00:00:07.790	0.070	0.000
00:00:07.792	0.120	-0.005
00:00:07.794	-0.005	-0.020
00:00:07.796	0.010	-0.045
00:00:07.798	0.020	-0.065
00:00:07.800	-0.090	-0.085
00:00:07.802	-0.200	-0.100
00:00:07.804	-0.150	-0.105
00:00:07.806	-0.100	-0.100
00:00:07.808	-0.070	-0.095
00:00:07.810	-0.045	-0.080
00:00:07.812	0.045	-0.065
00:00:07.814	0.090	-0.055
00:00:07.816	0.095	-0.045
00:00:07.818	-0.065	-0.040
00:00:07.820	-0.120	-0.040
00:00:07.822	-0.115	-0.035
00:00:07.824	-0.020	-0.035
00:00:07.826	0.000	-0.035
00:00:07.828	-0.020	-0.035
00:00:07.830	0.035	-0.035
00:00:07.832	0.025	-0.035
00:00:07.834	0.030	-0.040
00:00:07.836	-0.020	-0.040
00:00:07.838	-0.040	-0.040
00:00:07.840	-0.020	-0.040
00:00:07.842	-0.080	-0.040
00:00:07.844	-0.025	-0.035
00:00:07.846	0.005	-0.030
00:00:07.848	0.050	-0.020
00:00:07.850	0.090	-0.020
00:00:07.852	0.050	-0.015
00:00:07.854	0.060	-0.020
00:00:07.856	0.035	-0.025
00:00:07.858	-0.070	-0.035
00:00:07.860	-0.055	-0.045
00:00:07.862	-0.075	-0.050
00:00:07.864	-0.055	-0.060
00:00:07.866	-0.075	-0.060
00:00:07.868	0.005	-0.055
00:00:07.870	-0.025	-0.045
00:00:07.872	0.055	-0.035
00:00:07.874	0.090	-0.025
00:00:07.876	0.070	-0.020
00:00:07.878	0.005	-0.020
00:00:07.880	-0.045	-0.020
00:00:07.882	-0.070	-0.025
00:00:07.884	-0.095	-0.030
00:00:07.886	-0.055	-0.040
00:00:07.888	0.025	-0.040
00:00:07.890	0.055	-0.040
00:00:07.892	0.025	-0.035
00:00:07.894	0.025	-0.025
00:00:07.896	0.080	-0.020
00:00:07.898	0.065	-0.015
00:00:07.900	-0.025	-0.015
00:00:07.902	-0.080	-0.020
00:00:07.904	-0.115	-0.035
00:00:07.906	-0.070	-0.045
00:00:07.908	0.020	-0.060
00:00:07.910	-0.055	-0.070
00:00:07.912	-0.025	-0.070
00:00:07.914	0.055	-0.060
00:00:07.916	0.070	-0.045
00:00:07.918	0.000	-0.025
00:00:07.920	0.015	-0.005
00:00:07.922	-0.030	0.010
00:00:07.924	-0.085	0.015
00:00:07.926	-0.055	0.015
00:00:07.928	0.045	0.000
00:00:07.930	0.105	-0.020
00:00:07.932	0.095	-0.040
00:00:07.934	0.045	-0.060
00:00:07.936	-0.100	-0.075
00:00:07.938	-0.175	-0.075
00:00:07.940	-0.125	-0.070
00:00:07.942	-0.060	-0.055
00:00:07.944	0.025	-0.040
00:00:07.946	-0.005	-0.025
00:00:07.948	0.060	-0.015
00:00:07.950	0.065	-0.010
00:00:07.952	0.040	-0.015
00:00:07.954	0.015	-0.025
00:00:07.956	-0.045	-0.035
00:00:07.958	-0.070	-0.050
00:00:07.960	-0.060	-0.060
00:00:07.962	-0.095	-0.065
00:00:07.964	-0.100	-0.070
00:00:07.966	-0.090	-0.065
00:00:07.968	0.020	-0.065
00:00:07.970	0.055	-0.065
00:00:07.972	0.075	-0.065
00:00:07.974	0.085	-0.065
00:00:07.976	-0.045	-0.070
00:00:07.978	-0.175	-0.080
00:00:07.980	-0.195	-0.085
00:00:07.982	-0.165	-0.090
00:00:07.984	-0.045	-0.090
00:00:07.986	0.030	-0.090
00:00:07.988	0.095	-0.090
00:00:07.990	-0.025	-0.080
00:00:07.992	-0.045	-0.070
00:00:07.994	-0.045	-0.065
00:00:07.996	-0.050	-0.055
00:00:07.998	-0.010	-0.050
00:00:08.000	-0.020	-0.045
00:00:08.002	-0.100	-0.045
00:00:08.004	-0.115	-0.045
00:00:08.006	0.005	-0.050
00:00:08.008	0.055	-0.055
00:00:08.010	0.120	-0.060
00:00:08.012	-0.010	-0.060
00:00:08.014	0.010	-0.060
00:00:08.016	-0.120	-0.060
00:00:08.018	-0.090	-0.060
00:00:08.020	-0.035	-0.060
00:00:08.022	-0.070	-0.060
00:00:08.024	-0.125	-0.065
00:00:08.026	-0.110	-0.075
00:00:08.028	0.005	-0.080
00:00:08.030	0.050	-0.090
00:00:08.032	0.060	-0.100
00:00:08.034	-0.040	-0.100
00:00:08.036	-0.270	-0.095
00:00:08.038	-0.070	-0.080
00:00:08.040	-0.065	-0.065
00:00:08.042	-0.085	-0.050
00:00:08.044	0.000	-0.035
00:00:08.046	0.030	-0.025
00:00:08.048	0.020	-0.025
00:00:08.050	0.020	-0.030
00:00:08.052	0.080	-0.045
00:00:08.054	-0.030	-0.060
00:00:08.056	-0.100	-0.075
00:00:08.058	-0.160	-0.090
00:00:08.060	-0.130	-0.095
00:00:08.062	-0.095	-0.090
00:00:08.064	-0.030	-0.080
00:00:08.066	0.035	-0.070
00:00:08.068	0.035	-0.060
00:00:08.070	-0.010	-0.055
00:00:08.072	0.015	-0.055
00:00:08.074	-0.045	-0.060
00:00:08.076	-0.005	-0.075
00:00:08.078	-0.220	-0.085
00:00:08.080	-0.150	-0.100
00:00:08.082	-0.095	-0.110
00:00:08.084	-0.030	-0.115
00:00:08.086	-0.030	-0.115
00:00:08.088	-0.035	-0.110
00:00:08.090	-0.035	-0.100
00:00:08.092	-0.040	-0.085
00:00:08.094	-0.060	-0.075
00:00:08.096	-0.045	-0.060
00:00:08.098	0.030	-0.050
00:00:08.100	-0.100	-0.045
00:00:08.102	-0.025	-0.035
00:00:08.104	-0.030	-0.030
00:00:08.106	0.000	-0.030
00:00:08.108	0.065	-0.030
00:00:08.110	0.030	-0.030
00:00:08.112	0.055	-0.030
00:00:08.114	0.010	-0.035
00:00:08.116	0.000	-0.045
00:00:08.118	-0.060	-0.050
00:00:08.120	-0.170	-0.055
00:00:08.122	-0.110	-0.055
00:00:08.124	0.000	-0.055
00:00:08.126	-0.025	-0.050
00:00:08.128	0.040	-0.045
00:00:08.130	0.110	-0.040
00:00:08.132	0.115	-0.035
00:00:08.134	0.090	-0.030
00:00:08.136	-0.060	-0.030
00:00:08.138	-0.095	-0.030
00:00:08.140	-0.125	-0.035
00:00:08.142	-0.140	-0.035
00:00:08.144	-0.120	-0.035
00:00:08.146	0.055	-0.035
00:00:08.148	0.125	-0.035
00:00:08.150	0.125	-0.035
00:00:08.152	0.130	-0.035
00:00:08.154	0.045	-0.040
00:00:08.156	-0.195	-0.045
00:00:08.158	-0.135	-0.050
00:00:08.160	-0.125	-0.060
00:00:08.162	-0.045	-0.065
00:00:08.164	-0.010	-0.070
00:00:08.166	-0.030	-0.070
00:00:08.168	0.020	-0.065
00:00:08.170	0.045	-0.060
00:00:08.172	0.020	-0.050
00:00:08.174	0.030	-0.045
00:00:08.176	-0.055	-0.040
00:00:08.178	-0.135	-0.040
00:00:08.180	-0.105	-0.050
00:00:08.182	-0.095	-0.060
00:00:08.184	-0.020	-0.075
00:00:08.186	0.080	-0.095
00:00:08.188	-0.065	-0.105
00:00:08.190	-0.110	-0.115
00:00:08.192	-0.065	-0.120
00:00:08.194	-0.045	-0.115
00:00:08.196	-0.075	-0.105
00:00:08.198	-0.065	-0.090
00:00:08.200	-0.090	-0.075
00:00:08.202	-0.095	-0.065
00:00:08.204	-0.060	-0.060
00:00:08.206	-0.100	-0.065
00:00:08.208	-0.035	-0.075
00:00:08.210	0.090	-0.090
00:00:08.212	-0.010	-0.110
00:00:08.214	-0.085	-0.125
00:00:08.216	-0.130	-0.140
00:00:08.218	-0.180	-0.145
00:00:08.220	-0.195	-0.140
00:00:08.222	-0.170	-0.135
00:00:08.224	-0.105	-0.125
00:00:08.226	0.000	-0.110
00:00:08.228	-0.065	-0.100
00:00:08.230	0.005	-0.090
00:00:08.232	0.085	-0.090
00:00:08.234	-0.030	-0.090
00:00:08.236	-0.105	-0.090
00:00:08.238	-0.120	-0.090
00:00:08.240	-0.250	-0.090
00:00:08.242	-0.235	-0.090
00:00:08.244	-0.040	-0.085
00:00:08.246	0.105	-0.075
00:00:08.248	0.075	-0.070
00:00:08.250	0.015	-0.065
00:00:08.252	0.010	-0.070
00:00:08.254	-0.045	-0.080
00:00:08.256	-0.145	-0.100
00:00:08.258	-0.225	-0.125
00:00:08.260	-0.245	-0.145
00:00:08.262	-0.215	-0.160
00:00:08.264	-0.110	-0.170
00:00:08.266	-0.100	-0.165
00:00:08.268	0.015	-0.150
00:00:08.270	-0.015	-0.115
00:00:08.272	-0.055	-0.075
00:00:08.274	-0.010	-0.030
00:00:08.276	0.070	0.025
00:00:08.278	0.085	0.080
00:00:08.280	0.100	0.135
00:00:08.282	0.160	0.195
00:00:08.284	0.245	0.255
00:00:08.286	0.395	0.325
00:00:08.288	0.545	0.400
00:00:08.290	0.650	0.475
00:00:08.292	0.695	0.545
00:00:08.294	0.605	0.600
00:00:08.296	0.670	0.630
00:00:08.298	0.595	0.625
00:00:08.300	0.470	0.585
00:00:08.302	0.420	0.505
00:00:08.304	0.445	0.400
00:00:08.306	0.365	0.270
00:00:08.308	0.270	0.140
00:00:08.310	0.115	0.015
00:00:08.312	-0.125	-0.090
00:00:08.314	-0.200	-0.165
00:00:08.316	-0.255	-0.205
00:00:08.318	-0.250	-0.215
00:00:08.320	-0.240	-0.205
00:00:08.322	-0.180	-0.170
00:00:08.324	-0.060	-0.130
00:00:08.326	0.035	-0.090
00:00:08.328	0.090	-0.055
00:00:08.330	0.105	-0.030
00:00:08.332	0.050	-0.010
00:00:08.334	-0.020	-0.005
00:00:08.336	-0.020	-0.010
00:00:08.338	-0.080	-0.020
00:00:08.340	-0.110	-0.035
00:00:08.342	-0.025	-0.050
00:00:08.344	-0.065	-0.065
00:00:08.346	-0.065	-0.080
00:00:08.348	0.075	-0.085
00:00:08.350	0.075	-0.085
00:00:08.352	-0.045	-0.080
00:00:08.354	-0.155	-0.065
00:00:08.356	-0.095	-0.055
00:00:08.358	-0.095	-0.040
00:00:08.360	-0.015	-0.025
00:00:08.362	0.020	-0.015
00:00:08.364	0.035	-0.015
00:00:08.366	0.115	-0.015
00:00:08.368	0.040	-0.015
00:00:08.370	0.030	-0.020
00:00:08.372	0.085	-0.025
00:00:08.374	-0.030	-0.025
00:00:08.376	-0.100	-0.025
00:00:08.378	-0.095	-0.030
00:00:08.380	0.005	-0.030
00:00:08.382	0.010	-0.030
00:00:08.384	-0.050	-0.030
00:00:08.386	0.020	-0.030
00:00:08.388	0.065	-0.030
00:00:08.390	0.115	-0.025
00:00:08.392	0.110	-0.015
00:00:08.394	0.065	-0.005
00:00:08.396	-0.010	0.000
00:00:08.398	-0.090	0.010
00:00:08.400	-0.055	0.010
00:00:08.402	-0.070	0.010
00:00:08.404	-0.025	0.000
00:00:08.406	0.055	-0.010
00:00:08.408	0.175	-0.025
00:00:08.410	0.120	-0.035
00:00:08.412	0.110	-0.040
00:00:08.414	-0.040	-0.035
00:00:08.416	-0.120	-0.030
00:00:08.418	-0.125	-0.015
00:00:08.420	-0.050	0.000
00:00:08.422	0.090	0.020
00:00:08.424	0.110	0.030
00:00:08.426	0.120	0.040
00:00:08.428	0.080	0.040
00:00:08.430	0.055	0.040
00:00:08.432	0.110	0.035
00:00:08.434	0.060	0.035
00:00:08.436	-0.030	0.030
00:00:08.438	0.040	0.035
00:00:08.440	0.010	0.035
00:00:08.442	0.000	0.035
00:00:08.444	0.055	0.040
00:00:08.446	0.130	0.040
00:00:08.448	0.190	0.035
00:00:08.450	0.135	0.035
00:00:08.452	0.045	0.030
00:00:08.454	0.075	0.030
00:00:08.456	-0.015	0.030
00:00:08.458	-0.025	0.035
00:00:08.460	0.015	0.045
00:00:08.462	0.020	0.060
00:00:08.464	0.105	0.075
00:00:08.466	0.180	0.095
00:00:08.468	0.360	0.115
00:00:08.470	0.275	0.130
00:00:08.472	0.165	0.145
00:00:08.474	0.080	0.150
00:00:08.476	0.105	0.155
00:00:08.478	0.055	0.150
00:00:08.480	0.035	0.145
00:00:08.482	0.085	0.140
00:00:08.484	0.240	0.135
00:00:08.486	0.335	0.135
00:00:08.488	0.335	0.145
00:00:08.490	0.195	0.160
00:00:08.492	0.075	0.180
00:00:08.494	0.245	0.205
00:00:08.496	0.240	0.225
00:00:08.498	0.180	0.245
00:00:08.500	0.160	0.255
00:00:08.502	0.255	0.250
00:00:08.504	0.330	0.240
00:00:08.506	0.320	0.225
00:00:08.508	0.265	0.210
00:00:08.510	0.340	0.200
00:00:08.512	0.310	0.190
00:00:08.514	0.140	0.195
00:00:08.516	0.155	0.205
00:00:08.518	0.075	0.220
00:00:08.520	0.275	0.240
00:00:08.522	0.335	0.260
00:00:08.524	0.270	0.275
00:00:08.526	0.385	0.280
00:00:08.528	0.415	0.280
00:00:08.530	0.380	0.275
00:00:08.532	0.295	0.270
00:00:08.534	0.210	0.260
00:00:08.536	0.175	0.250
00:00:08.538	0.190	0.240
00:00:08.540	0.185	0.235
00:00:08.542	0.295	0.230
00:00:08.544	0.310	0.220
00:00:08.546	0.325	0.215
00:00:08.548	0.300	0.205
00:00:08.550	0.215	0.190
00:00:08.552	0.115	0.175
00:00:08.554	0.155	0.155
00:00:08.556	0.115	0.140
00:00:08.558	0.055	0.120
00:00:08.560	0.020	0.105
00:00:08.562	0.160	0.085
00:00:08.564	0.185	0.070
00:00:08.566	0.140	0.055
00:00:08.568	0.130	0.045
00:00:08.570	0.060	0.030
00:00:08.572	-0.005	0.020
00:00:08.574	-0.035	0.010
00:00:08.576	-0.060	0.000
00:00:08.578	-0.095	-0.010
00:00:08.580	-0.065	-0.015
00:00:08.582	0.090	-0.020
00:00:08.584	0.160	-0.025
00:00:08.586	0.095	-0.025
00:00:08.588	0.015	-0.025
00:00:08.590	-0.085	-0.020
00:00:08.592	-0.035	-0.015
00:00:08.594	0.035	-0.010
00:00:08.596	0.030	-0.005
00:00:08.598	-0.050	-0.005
00:00:08.600	-0.010	-0.005
00:00:08.602	0.015	-0.010
00:00:08.604	0.005	-0.015
00:00:08.606	0.060	-0.025
00:00:08.608	0.065	-0.030
00:00:08.610	0.035	-0.035
00:00:08.612	-0.050	-0.040
00:00:08.614	0.000	-0.045
00:00:08.616	-0.095	-0.045
00:00:08.618	-0.080	-0.045
00:00:08.620	-0.085	-0.045
00:00:08.622	-0.020	-0.045
00:00:08.624	0.005	-0.045
00:00:08.626	0.100	-0.045
00:00:08.628	0.080	-0.045
00:00:08.630	0.010	-0.045
00:00:08.632	-0.060	-0.045
00:00:08.634	-0.095	-0.045
00:00:08.636	-0.115	-0.050
00:00:08.638	-0.140	-0.055
00:00:08.640	-0.150	-0.065
00:00:08.642	0.025	-0.070
00:00:08.644	0.140	-0.080
00:00:08.646	0.090	-0.080
00:00:08.648	-0.110	-0.080
00:00:08.650	-0.035	-0.075
00:00:08.652	-0.100	-0.065
00:00:08.654	-0.060	-0.055
00:00:08.656	-0.085	-0.045
00:00:08.658	-0.115	-0.040
00:00:08.660	-0.115	-0.035
00:00:08.662	0.025	-0.035
00:00:08.664	0.130	-0.040
00:00:08.666	0.115	-0.045
00:00:08.668	0.035	-0.045
00:00:08.670	-0.025	-0.045
00:00:08.672	-0.080	-0.045
00:00:08.674	-0.060	-0.040
00:00:08.676	-0.075	-0.040
00:00:08.678	-0.060	-0.035
00:00:08.680	-0.055	-0.040
00:00:08.682	-0.030	-0.045
00:00:08.684	0.040	-0.050
00:00:08.686	0.075	-0.060
00:00:08.688	0.080	-0.065
00:00:08.690	-0.050	-0.065
00:00:08.692	-0.105	-0.060
00:00:08.694	-0.045	-0.050
00:00:08.696	-0.050	-0.040
00:00:08.698	-0.075	-0.030
00:00:08.700	-0.030	-0.020
00:00:08.702	0.000	-0.020
00:00:08.704	0.130	-0.025
00:00:08.706	0.080	-0.035
00:00:08.708	0.055	-0.050
00:00:08.710	-0.055	-0.065
00:00:08.712	-0.130	-0.070
00:00:08.714	-0.155	-0.070
00:00:08.716	-0.205	-0.065
00:00:08.718	-0.035	-0.050
00:00:08.720	0.075	-0.030
00:00:08.722	0.125	-0.015
00:00:08.724	0.110	-0.005
00:00:08.726	0.060	-0.005
00:00:08.728	-0.020	-0.010
00:00:08.730	-0.020	-0.025
00:00:08.732	-0.105	-0.040
00:00:08.734	-0.060	-0.050
00:00:08.736	-0.035	-0.060
00:00:08.738	-0.080	-0.055
00:00:08.740	0.035	-0.045
00:00:08.742	0.045	-0.035
00:00:08.744	0.015	-0.015
00:00:08.746	0.065	-0.005
00:00:08.748	0.100	0.005
00:00:08.750	0.090	0.000
00:00:08.752	-0.015	-0.005
00:00:08.754	-0.100	-0.020
00:00:08.756	-0.070	-0.035
00:00:08.758	-0.065	-0.045
00:00:08.760	-0.015	-0.055
00:00:08.762	0.000	-0.060
00:00:08.764	0.055	-0.055
00:00:08.766	0.090	-0.055
00:00:08.768	0.000	-0.050
00:00:08.770	-0.045	-0.050
00:00:08.772	-0.085	-0.050
00:00:08.774	-0.115	-0.055
00:00:08.776	-0.135	-0.065
00:00:08.778	-0.055	-0.070
00:00:08.780	-0.035	-0.075
00:00:08.782	0.045	-0.070
00:00:08.784	0.025	-0.060
00:00:08.786	0.025	-0.045
00:00:08.788	-0.020	-0.035
00:00:08.790	0.040	-0.020
00:00:08.792	0.035	-0.015
00:00:08.794	-0.050	-0.020
00:00:08.796	-0.045	-0.025
00:00:08.798	-0.035	-0.040
00:00:08.800	-0.090	-0.060
00:00:08.802	-0.025	-0.075
00:00:08.804	0.010	-0.085
00:00:08.806	0.020	-0.085
00:00:08.808	0.035	-0.075
00:00:08.810	0.010	-0.065
00:00:08.812	-0.040	-0.045
00:00:08.814	0.000	-0.030
00:00:08.816	-0.075	-0.015
00:00:08.818	-0.095	-0.010
00:00:08.820	-0.045	-0.015
00:00:08.822	0.050	-0.025
00:00:08.824	0.075	-0.040
00:00:08.826	0.035	-0.055
00:00:08.828	0.035	-0.065
00:00:08.830	0.025	-0.075
00:00:08.832	-0.085	-0.075
00:00:08.834	-0.090	-0.075
00:00:08.836	-0.105	-0.065
00:00:08.838	-0.080	-0.055
00:00:08.840	0.015	-0.050
00:00:08.842	0.010	-0.045
00:00:08.844	0.000	-0.040
00:00:08.846	0.045	-0.045
00:00:08.848	0.015	-0.050
00:00:08.850	0.005	-0.060
00:00:08.852	-0.045	-0.070
00:00:08.854	-0.115	-0.075
00:00:08.856	-0.155	-0.075
00:00:08.858	-0.135	-0.070
00:00:08.860	-0.045	-0.065
00:00:08.862	0.055	-0.055
00:00:08.864	0.135	-0.040
00:00:08.866	0.085	-0.030
00:00:08.868	0.075	-0.020
00:00:08.870	0.030	-0.015
00:00:08.872	-0.045	-0.020
00:00:08.874	-0.075	-0.025
00:00:08.876	-0.035	-0.040
00:00:08.878	-0.075	-0.055
00:00:08.880	-0.130	-0.070
00:00:08.882	-0.025	-0.085
00:00:08.884	0.085	-0.095
00:00:08.886	0.000	-0.100
00:00:08.888	-0.050	-0.095
00:00:08.890	-0.070	-0.090
00:00:08.892	-0.070	-0.075
00:00:08.894	-0.035	-0.060
00:00:08.896	-0.020	-0.045
00:00:08.898	-0.120	-0.030
00:00:08.900	-0.035	-0.025
00:00:08.902	0.110	-0.020
00:00:08.904	0.120	-0.025
00:00:08.906	0.025	-0.035
00:00:08.908	0.045	-0.050
00:00:08.910	-0.025	-0.065
00:00:08.912	-0.160	-0.075
00:00:08.914	-0.185	-0.090
00:00:08.916	-0.070	-0.095
00:00:08.918	-0.125	-0.095
00:00:08.920	-0.035	-0.090
00:00:08.922	0.035	-0.080
00:00:08.924	0.110	-0.065
00:00:08.926	0.100	-0.050
00:00:08.928	-0.015	-0.035
00:00:08.930	-0.070	-0.025
00:00:08.932	-0.135	-0.020
00:00:08.934	-0.055	-0.020
00:00:08.936	-0.035	-0.025
00:00:08.938	-0.020	-0.035
00:00:08.940	-0.020	-0.045
00:00:08.942	0.055	-0.055
00:00:08.944	0.090	-0.060
00:00:08.946	0.095	-0.065
00:00:08.948	-0.020	-0.060
00:00:08.950	-0.110	-0.055
00:00:08.952	-0.095	-0.045
00:00:08.954	-0.065	-0.035
00:00:08.956	-0.045	-0.025
00:00:08.958	-0.015	-0.025
00:00:08.960	0.035	-0.030
00:00:08.962	0.095	-0.040
00:00:08.964	0.050	-0.050
00:00:08.966	-0.020	-0.060
00:00:08.968	0.025	-0.065
00:00:08.970	-0.105	-0.070
00:00:08.972	-0.170	-0.075
00:00:08.974	-0.095	-0.070
00:00:08.976	-0.075	-0.070
00:00:08.978	-0.020	-0.065
00:00:08.980	0.000	-0.065
00:00:08.982	0.070	-0.065
00:00:08.984	0.085	-0.070
00:00:08.986	0.035	-0.070
00:00:08.988	-0.025	-0.070
00:00:08.990	-0.115	-0.065
00:00:08.992	-0.200	-0.060
00:00:08.994	-0.125	-0.050
00:00:08.996	-0.020	-0.035
00:00:08.998	-0.005	-0.020
00:00:09.000	0.145	-0.005
00:00:09.002	0.150	0.005
00:00:09.004	0.100	0.015
00:00:09.006	0.095	0.020
00:00:09.008	0.065	0.020
00:00:09.010	0.025	0.020
00:00:09.012	0.005	0.020
00:00:09.014	0.005	0.020
00:00:09.016	0.010	0.020
00:00:09.018	0.015	0.020
00:00:09.020	0.020	0.015
00:00:09.022	0.115	0.010
00:00:09.024	0.130	0.000
00:00:09.026	0.050	-0.015
00:00:09.028	0.000	-0.030
00:00:09.030	-0.090	-0.045
00:00:09.032	-0.125	-0.055
00:00:09.034	-0.115	-0.065
00:00:09.036	-0.095	-0.075
00:00:09.038	-0.065	-0.080
00:00:09.040	-0.025	-0.085
00:00:09.042	0.065	-0.085
00:00:09.044	-0.015	-0.085
00:00:09.046	-0.010	-0.085
00:00:09.048	0.005	-0.080
00:00:09.050	-0.085	-0.080
00:00:09.052	-0.130	-0.080
00:00:09.054	-0.185	-0.075
00:00:09.056	-0.105	-0.070
00:00:09.058	-0.010	-0.070
00:00:09.060	0.035	-0.070
00:00:09.062	0.020	-0.070
00:00:09.064	0.050	-0.070
00:00:09.066	0.005	-0.075
00:00:09.068	-0.025	-0.085
00:00:09.070	-0.145	-0.090
00:00:09.072	-0.200	-0.095
00:00:09.074	-0.105	-0.100
00:00:09.076	-0.080	-0.105
00:00:09.078	-0.025	-0.105
00:00:09.080	-0.050	-0.100
00:00:09.082	0.010	-0.095
00:00:09.084	0.040	-0.090
00:00:09.086	0.010	-0.080
00:00:09.088	-0.025	-0.080
00:00:09.090	-0.100	-0.080
00:00:09.092	-0.175	-0.080
00:00:09.094	-0.155	-0.085
00:00:09.096	-0.120	-0.090
00:00:09.098	-0.055	-0.095
00:00:09.100	0.010	-0.095
00:00:09.102	0.035	-0.095
00:00:09.104	0.000	-0.090
00:00:09.106	-0.020	-0.085
00:00:09.108	-0.130	-0.085
00:00:09.110	-0.065	-0.090
00:00:09.112	-0.030	-0.100
00:00:09.114	-0.180	-0.115
00:00:09.116	-0.215	-0.130
00:00:09.118	-0.100	-0.150
00:00:09.120	-0.060	-0.165
00:00:09.122	-0.025	-0.170
00:00:09.124	-0.145	-0.170
00:00:09.126	-0.085	-0.155
00:00:09.128	-0.125	-0.130
00:00:09.130	-0.050	-0.095
00:00:09.132	-0.025	-0.050
00:00:09.134	-0.030	0.000
00:00:09.136	0.040	0.050
00:00:09.138	0.185	0.105
00:00:09.140	0.320	0.165
00:00:09.142	0.310	0.225
00:00:09.144	0.320	0.295
00:00:09.146	0.395	0.365
00:00:09.148	0.425	0.440
00:00:09.150	0.575	0.505
00:00:09.152	0.660	0.560
00:00:09.154	0.640	0.595
00:00:09.156	0.650	0.600
00:00:09.158	0.620	0.575
00:00:09.160	0.595	0.520
00:00:09.162	0.480	0.435
00:00:09.164	0.350	0.335
00:00:09.166	0.155	0.220
00:00:09.168	0.205	0.115
00:00:09.170	0.075	0.020
00:00:09.172	-0.110	-0.055
00:00:09.174	-0.155	-0.105
00:00:09.176	-0.125	-0.130
00:00:09.178	-0.095	-0.135
00:00:09.180	-0.035	-0.125
00:00:09.182	0.020	-0.110
00:00:09.184	0.060	-0.085
00:00:09.186	-0.140	-0.060
00:00:09.188	-0.005	-0.040
00:00:09.190	0.025	-0.025
00:00:09.192	-0.020	-0.010
00:00:09.194	0.005	0.000
00:00:09.196	0.070	0.005
00:00:09.198	0.045	0.005
00:00:09.200	0.075	0.005
00:00:09.202	0.070	-0.005
00:00:09.204	0.035	-0.020
00:00:09.206	-0.080	-0.035
00:00:09.208	0.005	-0.050
00:00:09.210	-0.060	-0.065
00:00:09.212	-0.080	-0.070
00:00:09.214	-0.050	-0.070
00:00:09.216	-0.100	-0.065
00:00:09.218	-0.010	-0.050
00:00:09.220	0.055	-0.035
00:00:09.222	0.180	-0.020
00:00:09.224	0.055	-0.010
00:00:09.226	0.000	-0.010
00:00:09.228	0.005	-0.015
00:00:09.230	-0.050	-0.030
00:00:09.232	-0.095	-0.045
00:00:09.234	-0.125	-0.065
00:00:09.236	-0.030	-0.075
00:00:09.238	-0.050	-0.080
00:00:09.240	0.000	-0.070
00:00:09.242	0.050	-0.060
00:00:09.244	0.135	-0.045
00:00:09.246	0.055	-0.030
00:00:09.248	-0.025	-0.020
00:00:09.250	-0.040	-0.010
00:00:09.252	-0.090	-0.010
00:00:09.254	-0.105	-0.015
00:00:09.256	0.020	-0.015
00:00:09.258	0.130	-0.015
00:00:09.260	-0.045	-0.010
00:00:09.262	0.135	0.005
00:00:09.264	0.235	0.020
00:00:09.266	0.130	0.035
00:00:09.268	0.035	0.045
00:00:09.270	-0.055	0.050
00:00:09.272	0.000	0.045
00:00:09.274	0.050	0.030
00:00:09.276	0.035	0.010
00:00:09.278	-0.010	-0.005
00:00:09.280	0.010	-0.015
00:00:09.282	0.070	-0.015
00:00:09.284	0.175	-0.010
00:00:09.286	0.095	0.010
00:00:09.288	0.095	0.025
00:00:09.290	0.010	0.045
00:00:09.292	0.050	0.055
00:00:09.294	0.015	0.055
00:00:09.296	-0.040	0.050
00:00:09.298	0.055	0.035
00:00:09.300	0.090	0.020
00:00:09.302	0.075	0.005
00:00:09.304	0.160	-0.005
00:00:09.306	0.130	-0.005
00:00:09.308	0.105	0.005
00:00:09.310	0.035	0.020
00:00:09.312	0.000	0.040
00:00:09.314	0.040	0.060
00:00:09.316	0.025	0.075
00:00:09.318	0.085	0.085
00:00:09.320	0.135	0.090
00:00:09.322	0.255	0.095
00:00:09.324	0.225	0.095
00:00:09.326	0.165	0.100
00:00:09.328	0.055	0.105
00:00:09.330	0.115	0.110
00:00:09.332	0.120	0.120
00:00:09.334	0.150	0.125
00:00:09.336	0.130	0.135
00:00:09.338	0.185	0.135
00:00:09.340	0.245	0.140
00:00:09.342	0.250	0.140
00:00:09.344	0.220	0.140
00:00:09.346	0.155	0.140
00:00:09.348	0.150	0.145
00:00:09.350	0.140	0.150
00:00:09.352	0.170	0.160
00:00:09.354	0.155	0.175
00:00:09.356	0.230	0.190
00:00:09.358	0.270	0.205
00:00:09.360	0.250	0.220
00:00:09.362	0.390	0.235
00:00:09.364	0.385	0.245
00:00:09.366	0.280	0.255
00:00:09.368	0.200	0.255
00:00:09.370	0.225	0.260
00:00:09.372	0.220	0.260
00:00:09.374	0.255	0.255
00:00:09.376	0.320	0.250
00:00:09.378	0.390	0.245
00:00:09.380	0.390	0.245
00:00:09.382	0.325	0.240
00:00:09.384	0.275	0.235
00:00:09.386	0.250	0.235
00:00:09.388	0.185	0.230
00:00:09.390	0.240	0.230
00:00:09.392	0.165	0.225
00:00:09.394	0.180	0.225
00:00:09.396	0.325	0.225
00:00:09.398	0.360	0.225
00:00:09.400	0.290	0.225
00:00:09.402	0.215	0.220
00:00:09.404	0.300	0.220
00:00:09.406	0.315	0.215
00:00:09.408	0.265	0.210
00:00:09.410	0.120	0.200
00:00:09.412	0.140	0.185
00:00:09.414	0.160	0.165
00:00:09.416	0.175	0.140
00:00:09.418	0.185	0.110
00:00:09.420	0.220	0.080
00:00:09.422	0.075	0.050
00:00:09.424	0.085	0.025
00:00:09.426	0.095	0.010
00:00:09.428	0.050	-0.005
00:00:09.430	-0.060	-0.005
00:00:09.432	-0.065	-0.005
00:00:09.434	-0.075	0.000
00:00:09.436	0.090	0.010
00:00:09.438	0.140	0.020
00:00:09.440	0.120	0.025
00:00:09.442	0.110	0.025
00:00:09.444	0.105	0.020
00:00:09.446	0.085	0.010
00:00:09.448	0.015	0.000
00:00:09.450	-0.105	-0.015
00:00:09.452	-0.050	-0.025
00:00:09.454	-0.030	-0.040
00:00:09.456	0.010	-0.050
00:00:09.458	0.070	-0.060
00:00:09.460	0.010	-0.070
00:00:09.462	-0.005	-0.075
00:00:09.464	-0.055	-0.075
00:00:09.466	-0.090	-0.075
00:00:09.468	-0.145	-0.075
00:00:09.470	0.030	-0.070
00:00:09.472	-0.045	-0.065
00:00:09.474	-0.085	-0.055
00:00:09.476	-0.035	-0.050
00:00:09.478	0.050	-0.040
00:00:09.480	0.035	-0.035
00:00:09.482	0.130	-0.030
00:00:09.484	0.120	-0.030
00:00:09.486	0.000	-0.030
00:00:09.488	-0.095	-0.040
00:00:09.490	-0.140	-0.050
00:00:09.492	-0.135	-0.060
00:00:09.494	-0.075	-0.065
00:00:09.496	0.055	-0.075
00:00:09.498	0.185	-0.080
00:00:09.500	0.050	-0.075
00:00:09.502	-0.105	-0.075
00:00:09.504	-0.040	-0.070
00:00:09.506	0.005	-0.065
00:00:09.508	-0.120	-0.060
00:00:09.510	-0.090	-0.055
00:00:09.512	-0.030	-0.055
00:00:09.514	-0.045	-0.055
00:00:09.516	0.080	-0.060
00:00:09.518	0.045	-0.060
00:00:09.520	-0.020	-0.055
00:00:09.522	-0.055	-0.055
00:00:09.524	0.020	-0.050
00:00:09.526	0.010	-0.040
00:00:09.528	-0.035	-0.035
00:00:09.530	-0.045	-0.030
00:00:09.532	-0.070	-0.030
00:00:09.534	-0.010	-0.030
00:00:09.536	0.000	-0.035
00:00:09.538	0.080	-0.040
00:00:09.540	0.065	-0.045
00:00:09.542	0.045	-0.050
00:00:09.544	0.005	-0.055
00:00:09.546	-0.105	-0.055
00:00:09.548	-0.035	-0.055
00:00:09.550	-0.075	-0.055
00:00:09.552	-0.090	-0.055
00:00:09.554	-0.035	-0.055
00:00:09.556	0.040	-0.050
00:00:09.558	0.000	-0.045
00:00:09.560	0.110	-0.040
00:00:09.562	0.100	-0.035
00:00:09.564	0.090	-0.030
00:00:09.566	0.015	-0.025
00:00:09.568	-0.080	-0.025
00:00:09.570	-0.210	-0.025
00:00:09.572	-0.010	-0.035
00:00:09.574	-0.020	-0.045
00:00:09.576	-0.030	-0.055
00:00:09.578	-0.020	-0.065
00:00:09.580	0.115	-0.075
00:00:09.582	0.060	-0.080
00:00:09.584	-0.075	-0.080
00:00:09.586	-0.055	-0.075
00:00:09.588	-0.055	-0.065
00:00:09.590	-0.095	-0.055
00:00:09.592	-0.095	-0.050
00:00:09.594	-0.045	-0.040
00:00:09.596	-0.015	-0.040
00:00:09.598	0.075	-0.035
00:00:09.600	0.115	-0.040
00:00:09.602	0.055	-0.040
00:00:09.604	0.000	-0.045
00:00:09.606	-0.010	-0.045
00:00:09.608	-0.035	-0.045
00:00:09.610	-0.105	-0.050
00:00:09.612	-0.095	-0.055
00:00:09.614	-0.055	-0.060
00:00:09.616	-0.015	-0.070
00:00:09.618	0.060	-0.080
00:00:09.620	-0.010	-0.085
00:00:09.622	0.080	-0.085
00:00:09.624	-0.065	-0.085
00:00:09.626	-0.110	-0.080
00:00:09.628	-0.030	-0.070
00:00:09.630	-0.110	-0.055
00:00:09.632	-0.050	-0.045
00:00:09.634	0.090	-0.045
00:00:09.636	0.000	-0.045
00:00:09.638	-0.020	-0.055
00:00:09.640	0.030	-0.070
00:00:09.642	0.045	-0.085
00:00:09.644	-0.050	-0.100
00:00:09.646	-0.130	-0.110
00:00:09.648	-0.155	-0.110
00:00:09.650	-0.080	-0.100
00:00:09.652	-0.035	-0.085
00:00:09.654	-0.080	-0.065
00:00:09.656	0.025	-0.045
00:00:09.658	0.135	-0.035
00:00:09.660	0.075	-0.025
00:00:09.662	0.040	-0.025
00:00:09.664	-0.015	-0.035
00:00:09.666	-0.085	-0.045
00:00:09.668	-0.125	-0.055
00:00:09.670	-0.095	-0.065
00:00:09.672	-0.105	-0.075
00:00:09.674	0.020	-0.080
00:00:09.676	0.080	-0.080
00:00:09.678	0.020	-0.075
00:00:09.680	0.055	-0.075
00:00:09.682	0.030	-0.075
00:00:09.684	-0.055	-0.075
00:00:09.686	-0.095	-0.075
00:00:09.688	-0.070	-0.075
00:00:09.690	-0.125	-0.070
00:00:09.692	-0.150	-0.060
00:00:09.694	0.010	-0.045
00:00:09.696	0.065	-0.030
00:00:09.698	0.070	-0.015
00:00:09.700	0.180	-0.005
00:00:09.702	0.075	0.000
00:00:09.704	0.065	-0.005
00:00:09.706	-0.015	-0.015
00:00:09.708	-0.075	-0.035
00:00:09.710	-0.150	-0.055
00:00:09.712	-0.105	-0.075
00:00:09.714	-0.095	-0.090
00:00:09.716	-0.015	-0.095
00:00:09.718	0.100	-0.090
00:00:09.720	0.090	-0.080
00:00:09.722	0.040	-0.065
00:00:09.724	-0.060	-0.050
00:00:09.726	-0.140	-0.040
00:00:09.728	-0.110	-0.040
00:00:09.730	-0.070	-0.045
00:00:09.732	0.070	-0.055
00:00:09.734	-0.005	-0.065
00:00:09.736	-0.025	-0.075
00:00:09.738	0.050	-0.085
00:00:09.740	0.005	-0.085
00:00:09.742	0.030	-0.075
00:00:09.744	-0.055	-0.065
00:00:09.746	-0.080	-0.050
00:00:09.748	-0.090	-0.035
00:00:09.750	-0.010	-0.025
00:00:09.752	0.040	-0.020
00:00:09.754	0.035	-0.020
00:00:09.756	0.070	-0.030
00:00:09.758	0.050	-0.045
00:00:09.760	-0.035	-0.060
00:00:09.762	-0.050	-0.070
00:00:09.764	-0.005	-0.085
00:00:09.766	-0.070	-0.090
00:00:09.768	-0.135	-0.095
00:00:09.770	-0.110	-0.090
00:00:09.772	-0.055	-0.090
00:00:09.774	0.020	-0.080
00:00:09.776	0.070	-0.075
00:00:09.778	0.075	-0.065
00:00:09.780	0.065	-0.055
00:00:09.782	-0.030	-0.045
00:00:09.784	-0.005	-0.035
00:00:09.786	0.015	-0.025
00:00:09.788	-0.060	-0.020
00:00:09.790	-0.080	-0.015
00:00:09.792	-0.070	-0.015
00:00:09.794	0.055	-0.020
00:00:09.796	0.105	-0.025
00:00:09.798	0.095	-0.030
00:00:09.800	0.050	-0.040
00:00:09.802	0.050	-0.045
00:00:09.804	-0.045	-0.045
00:00:09.806	-0.070	-0.050
00:00:09.808	-0.105	-0.045
00:00:09.810	-0.070	-0.040
00:00:09.812	-0.030	-0.040
00:00:09.814	0.070	-0.035
00:00:09.816	0.110	-0.030
00:00:09.818	0.055	-0.030
00:00:09.820	0.060	-0.030
00:00:09.822	0.030	-0.030
00:00:09.824	0.025	-0.030
00:00:09.826	0.025	-0.025
00:00:09.828	-0.045	-0.025
00:00:09.830	-0.080	-0.020
00:00:09.832	-0.030	-0.020
00:00:09.834	0.065	-0.020
00:00:09.836	0.110	-0.020
00:00:09.838	0.110	-0.020
00:00:09.840	0.110	-0.020
00:00:09.842	0.010	-0.025
00:00:09.844	0.005	-0.025
00:00:09.846	0.020	-0.030
00:00:09.848	-0.110	-0.030
00:00:09.850	-0.110	-0.030
00:00:09.852	0.000	-0.030
00:00:09.854	0.125	-0.025
00:00:09.856	0.095	-0.020
00:00:09.858	0.000	-0.010
00:00:09.860	0.090	-0.005
00:00:09.862	0.140	0.005
00:00:09.864	0.055	0.015
00:00:09.866	-0.005	0.025
00:00:09.868	0.005	0.030
00:00:09.870	-0.010	0.035
00:00:09.872	0.010	0.035
00:00:09.874	0.125	0.035
00:00:09.876	0.120	0.030
00:00:09.878	0.140	0.020
00:00:09.880	0.100	0.010
00:00:09.882	0.080	0.000
00:00:09.884	0.020	-0.015
00:00:09.886	-0.075	-0.025
00:00:09.888	-0.105	-0.040
00:00:09.890	-0.070	-0.045
00:00:09.892	-0.040	-0.055
00:00:09.894	-0.005	-0.060
00:00:09.896	0.070	-0.060
00:00:09.898	0.105	-0.055
00:00:09.900	0.035	-0.050
00:00:09.902	-0.020	-0.045
00:00:09.904	-0.090	-0.040
00:00:09.906	0.005	-0.035
00:00:09.908	0.010	-0.030
00:00:09.910	-0.075	-0.035
00:00:09.912	-0.045	-0.040
00:00:09.914	0.040	-0.055
00:00:09.916	0.005	-0.070
00:00:09.918	-0.015	-0.090
00:00:09.920	-0.005	-0.100
00:00:09.922	-0.010	-0.110
00:00:09.924	-0.005	-0.110
00:00:09.926	-0.150	-0.105
00:00:09.928	-0.180	-0.095
00:00:09.930	-0.030	-0.085
00:00:09.932	0.025	-0.070
00:00:09.934	0.020	-0.065
00:00:09.936	-0.020	-0.060
00:00:09.938	-0.095	-0.060
00:00:09.940	0.015	-0.065
00:00:09.942	0.065	-0.070
00:00:09.944	0.050	-0.070
00:00:09.946	-0.095	-0.070
00:00:09.948	-0.090	-0.070
00:00:09.950	-0.095	-0.060
00:00:09.952	-0.045	-0.050
00:00:09.954	0.040	-0.045
00:00:09.956	0.060	-0.040
00:00:09.958	0.080	-0.040
00:00:09.960	0.045	-0.050
00:00:09.962	0.015	-0.060
00:00:09.964	-0.040	-0.075
00:00:09.966	-0.195	-0.090
00:00:09.968	-0.150	-0.100
00:00:09.970	-0.090	-0.105
00:00:09.972	-0.075	-0.105
00:00:09.974	-0.005	-0.105
00:00:09.976	0.060	-0.100
00:00:09.978	0.060	-0.095
00:00:09.980	-0.010	-0.095
00:00:09.982	-0.100	-0.095
00:00:09.984	-0.145	-0.100
00:00:09.986	-0.125	-0.105
00:00:09.988	-0.170	-0.105
00:00:09.990	-0.090	-0.095
00:00:09.992	-0.015	-0.075
00:00:09.994	0.150	-0.035
00:00:09.996	0.210	0.015
00:00:09.998	0.240	0.085
00:00:10.000	0.100	0.160
00:00:10.002	0.250	0.245
00:00:10.004	0.355	0.335
00:00:10.006	0.375	0.420
00:00:10.008	0.540	0.500
00:00:10.010	0.630	0.565
00:00:10.012	0.790	0.615
00:00:10.014	0.775	0.640
00:00:10.016	0.830	0.645
00:00:10.018	0.680	0.620
00:00:10.020	0.570	0.565
00:00:10.022	0.485	0.490
00:00:10.024	0.350	0.390
00:00:10.026	0.285	0.275
00:00:10.028	0.160	0.160
00:00:10.030	0.030	0.055
00:00:10.032	-0.045	-0.030
00:00:10.034	-0.035	-0.090
00:00:10.036	-0.040	-0.125
00:00:10.038	-0.060	-0.135
00:00:10.040	0.000	-0.125
00:00:10.042	-0.050	-0.105
00:00:10.044	-0.035	-0.075
00:00:10.046	-0.070	-0.050
00:00:10.048	-0.040	-0.035
00:00:10.050	-0.035	-0.020
00:00:10.052	-0.015	-0.015
00:00:10.054	0.055	-0.015
00:00:10.056	0.150	-0.015
00:00:10.058	0.125	-0.015
00:00:10.060	0.075	-0.010
00:00:10.062	0.005	-0.010
00:00:10.064	-0.105	-0.010
00:00:10.066	-0.010	-0.015
00:00:10.068	-0.025	-0.020
00:00:10.070	-0.060	-0.030
00:00:10.072	0.020	-0.040
00:00:10.074	0.020	-0.045
00:00:10.076	0.090	-0.045
00:00:10.078	0.170	-0.040
00:00:10.080	0.145	-0.030
00:00:10.082	-0.015	-0.015
00:00:10.084	-0.115	0.000
00:00:10.086	-0.040	0.010
00:00:10.088	-0.015	0.010
00:00:10.090	0.015	0.000
00:00:10.092	0.085	-0.010
00:00:10.094	0.060	-0.030
00:00:10.096	0.100	-0.040
00:00:10.098	0.025	-0.045
00:00:10.100	0.005	-0.045
00:00:10.102	0.055	-0.030
00:00:10.104	0.025	-0.010
00:00:10.106	-0.015	0.010
00:00:10.108	0.020	0.025
00:00:10.110	-0.020	0.035
00:00:10.112	0.100	0.030
00:00:10.114	0.115	0.020
00:00:10.116	0.120	0.000
00:00:10.118	0.130	-0.015
00:00:10.120	0.065	-0.030
00:00:10.122	-0.020	-0.035
00:00:10.124	-0.170	-0.030
00:00:10.126	-0.135	-0.015
00:00:10.128	0.090	0.000
00:00:10.130	0.120	0.020
00:00:10.132	0.090	0.030
00:00:10.134	0.125	0.040
00:00:10.136	0.150	0.035
00:00:10.138	0.060	0.030
00:00:10.140	0.050	0.020
00:00:10.142	0.110	0.010
00:00:10.144	0.150	0.010
00:00:10.146	-0.080	0.015
00:00:10.148	0.000	0.030
00:00:10.150	0.070	0.045
00:00:10.152	0.145	0.065
00:00:10.154	0.200	0.080
00:00:10.156	0.195	0.085
00:00:10.158	0.225	0.085
00:00:10.160	0.165	0.075
00:00:10.162	0.085	0.060
00:00:10.164	-0.040	0.050
00:00:10.166	-0.040	0.035
00:00:10.168	0.005	0.030
00:00:10.170	0.080	0.030
00:00:10.172	0.190	0.035
00:00:10.174	0.235	0.045
00:00:10.176	0.195	0.055
00:00:10.178	0.180	0.065
00:00:10.180	0.140	0.075
00:00:10.182	0.055	0.080
00:00:10.184	0.050	0.090
00:00:10.186	-0.040	0.100
00:00:10.188	0.080	0.115
00:00:10.190	0.230	0.135
00:00:10.192	0.295	0.150
00:00:10.194	0.325	0.170
00:00:10.196	0.345	0.185
00:00:10.198	0.270	0.190
00:00:10.200	0.200	0.190
00:00:10.202	0.200	0.185
00:00:10.204	0.040	0.175
00:00:10.206	0.115	0.165
00:00:10.208	0.210	0.160
00:00:10.210	0.235	0.160
00:00:10.212	0.245	0.170
00:00:10.214	0.325	0.190
00:00:10.216	0.425	0.215
00:00:10.218	0.280	0.240
00:00:10.220	0.285	0.265
00:00:10.222	0.295	0.280
00:00:10.224	0.265	0.285
00:00:10.226	0.195	0.280
00:00:10.228	0.295	0.265
00:00:10.230	0.345	0.250
00:00:10.232	0.320	0.235
00:00:10.234	0.285	0.225
00:00:10.236	0.290	0.220
00:00:10.238	0.355	0.225
00:00:10.240	0.305	0.240
00:00:10.242	0.225	0.255
00:00:10.244	0.255	0.270
00:00:10.246	0.270	0.280
00:00:10.248	0.295	0.285
00:00:10.250	0.340	0.290
00:00:10.252	0.375	0.290
00:00:10.254	0.405	0.285
00:00:10.256	0.465	0.285
00:00:10.258	0.360	0.280
00:00:10.260	0.340	0.275
00:00:10.262	0.250	0.265
00:00:10.264	0.175	0.255
00:00:10.266	0.155	0.230
00:00:10.268	0.185	0.200
00:00:10.270	0.245	0.165
00:00:10.272	0.240	0.130
00:00:10.274	0.240	0.095
00:00:10.276	0.180	0.075
00:00:10.278	0.110	0.070
00:00:10.280	-0.100	0.075
00:00:10.282	0.045	0.100
00:00:10.284	0.250	0.125
00:00:10.286	0.240	0.155
00:00:10.288	0.185	0.175
00:00:10.290	0.210	0.180
00:00:10.292	0.220	0.165
00:00:10.294	0.240	0.135
00:00:10.296	0.165	0.095
00:00:10.298	0.085	0.045
00:00:10.300	-0.025	0.000
00:00:10.302	-0.125	-0.035
00:00:10.304	-0.005	-0.060
00:00:10.306	-0.020	-0.065
00:00:10.308	-0.065	-0.060
00:00:10.310	0.035	-0.045
00:00:10.312	0.025	-0.030
00:00:10.314	0.020	-0.020
00:00:10.316	0.110	-0.020
00:00:10.318	0.025	-0.025
00:00:10.320	-0.020	-0.035
00:00:10.322	-0.035	-0.050
00:00:10.324	-0.030	-0.060
00:00:10.326	-0.020	-0.070
00:00:10.328	-0.095	-0.070
00:00:10.330	-0.035	-0.065
00:00:10.332	-0.025	-0.050
00:00:10.334	0.070	-0.040
00:00:10.336	0.135	-0.030
00:00:10.338	0.085	-0.030
00:00:10.340	-0.030	-0.035
00:00:10.342	-0.065	-0.045
00:00:10.344	-0.135	-0.060
00:00:10.346	-0.115	-0.075
00:00:10.348	-0.040	-0.085
00:00:10.350	0.005	-0.085
00:00:10.352	0.010	-0.085
00:00:10.354	0.040	-0.075
00:00:10.356	0.015	-0.065
00:00:10.358	0.040	-0.055
00:00:10.360	-0.040	-0.045
00:00:10.362	-0.040	-0.045
00:00:10.364	-0.085	-0.045
00:00:10.366	-0.070	-0.050
00:00:10.368	0.000	-0.060
00:00:10.370	-0.060	-0.065
00:00:10.372	0.030	-0.070
00:00:10.374	0.080	-0.075
00:00:10.376	0.090	-0.075
00:00:10.378	0.005	-0.075
00:00:10.380	-0.035	-0.070
00:00:10.382	-0.095	-0.075
00:00:10.384	-0.165	-0.075
00:00:10.386	-0.115	-0.080
00:00:10.388	-0.070	-0.085
00:00:10.390	0.040	-0.085
00:00:10.392	0.020	-0.085
00:00:10.394	0.060	-0.075
00:00:10.396	0.075	-0.065
00:00:10.398	0.010	-0.050
00:00:10.400	0.010	-0.035
00:00:10.402	0.025	-0.020
00:00:10.404	-0.040	-0.015
00:00:10.406	-0.125	-0.015
00:00:10.408	-0.125	-0.025
00:00:10.410	0.045	-0.040
00:00:10.412	0.090	-0.050
00:00:10.414	0.085	-0.065
00:00:10.416	0.105	-0.070
00:00:10.418	-0.035	-0.070
00:00:10.420	-0.065	-0.065
00:00:10.422	-0.050	-0.055
00:00:10.424	-0.035	-0.050
00:00:10.426	-0.070	-0.045
00:00:10.428	-0.080	-0.045
00:00:10.430	-0.020	-0.050
00:00:10.432	0.085	-0.060
00:00:10.434	0.125	-0.070
00:00:10.436	-0.010	-0.075
00:00:10.438	-0.050	-0.075
00:00:10.440	-0.075	-0.070
00:00:10.442	-0.090	-0.060
00:00:10.444	-0.090	-0.050
00:00:10.446	0.060	-0.035
00:00:10.448	0.050	-0.030
00:00:10.450	0.015	-0.030
00:00:10.452	0.055	-0.035
00:00:10.454	0.145	-0.040
00:00:10.456	-0.055	-0.050
00:00:10.458	0.020	-0.055
00:00:10.460	-0.050	-0.055
00:00:10.462	-0.140	-0.050
00:00:10.464	-0.075	-0.040
00:00:10.466	0.080	-0.025
00:00:10.468	0.065	-0.015
00:00:10.470	0.030	-0.015
00:00:10.472	0.120	-0.020
00:00:10.474	0.050	-0.030
00:00:10.476	-0.035	-0.045
00:00:10.478	-0.075	-0.065
00:00:10.480	-0.040	-0.075
00:00:10.482	-0.075	-0.085
00:00:10.484	-0.110	-0.085
00:00:10.486	-0.080	-0.075
00:00:10.488	-0.050	-0.060
00:00:10.490	0.045	-0.050
00:00:10.492	0.110	-0.040
00:00:10.494	0.120	-0.035
00:00:10.496	0.060	-0.035
00:00:10.498	-0.035	-0.045
00:00:10.500	-0.060	-0.060
00:00:10.502	-0.180	-0.075
00:00:10.504	-0.215	-0.085
00:00:10.506	-0.050	-0.090
00:00:10.508	0.080	-0.090
00:00:10.510	0.010	-0.080
00:00:10.512	0.080	-0.065
00:00:10.514	0.080	-0.050
00:00:10.516	0.030	-0.035
00:00:10.518	0.020	-0.025
00:00:10.520	-0.010	-0.025
00:00:10.522	-0.065	-0.025
00:00:10.524	-0.070	-0.030
00:00:10.526	-0.030	-0.045
00:00:10.528	0.000	-0.055
00:00:10.530	0.035	-0.065
00:00:10.532	0.025	-0.075
00:00:10.534	0.035	-0.080
00:00:10.536	-0.025	-0.080
00:00:10.538	-0.050	-0.075
00:00:10.540	-0.085	-0.070
00:00:10.542	-0.075	-0.065
00:00:10.544	-0.060	-0.060
00:00:10.546	-0.015	-0.060
00:00:10.548	0.030	-0.060
00:00:10.550	0.055	-0.060
00:00:10.552	0.075	-0.065
00:00:10.554	0.055	-0.070
00:00:10.556	0.050	-0.075
00:00:10.558	-0.085	-0.080
00:00:10.560	-0.300	-0.080
00:00:10.562	-0.075	-0.075
00:00:10.564	0.020	-0.075
00:00:10.566	0.010	-0.070
00:00:10.568	-0.030	-0.070
00:00:10.570	0.010	-0.070
00:00:10.572	-0.015	-0.075
00:00:10.574	0.045	-0.080
00:00:10.576	0.025	-0.085
00:00:10.578	-0.100	-0.090
00:00:10.580	-0.085	-0.090
00:00:10.582	-0.055	-0.085
00:00:10.584	-0.095	-0.080
00:00:10.586	-0.070	-0.075
00:00:10.588	-0.035	-0.065
00:00:10.590	0.045	-0.055
00:00:10.592	0.075	-0.050
00:00:10.594	0.045	-0.045
00:00:10.596	0.055	-0.045
00:00:10.598	-0.015	-0.050
00:00:10.600	0.015	-0.050
00:00:10.602	-0.130	-0.055
00:00:10.604	-0.135	-0.060
00:00:10.606	-0.055	-0.060
00:00:10.608	-0.025	-0.065
00:00:10.610	0.015	-0.065
00:00:10.612	0.010	-0.070
00:00:10.614	-0.015	-0.070
00:00:10.616	0.060	-0.075
00:00:10.618	-0.005	-0.075
00:00:10.620	-0.110	-0.080
00:00:10.622	-0.140	-0.080
00:00:10.624	-0.095	-0.075
00:00:10.626	-0.120	-0.075
00:00:10.628	-0.040	-0.070
00:00:10.630	0.120	-0.065
00:00:10.632	0.090	-0.060
00:00:10.634	0.025	-0.060
00:00:10.636	-0.020	-0.065
00:00:10.638	-0.045	-0.070
00:00:10.640	-0.085	-0.075
00:00:10.642	-0.145	-0.080
00:00:10.644	-0.170	-0.085
00:00:10.646	-0.120	-0.090
00:00:10.648	0.025	-0.090
00:00:10.650	0.085	-0.085
00:00:10.652	0.075	-0.080
00:00:10.654	0.080	-0.075
00:00:10.656	0.000	-0.070
00:00:10.658	-0.075	-0.065
00:00:10.660	-0.090	-0.065
00:00:10.662	-0.140	-0.070
00:00:10.664	-0.105	-0.075
00:00:10.666	-0.035	-0.080
00:00:10.668	-0.025	-0.085
00:00:10.670	0.010	-0.090
00:00:10.672	0.010	-0.090
00:00:10.674	0.065	-0.090
00:00:10.676	0.035	-0.085
00:00:10.678	-0.130	-0.080
00:00:10.680	-0.155	-0.070
00:00:10.682	-0.060	-0.060
00:00:10.684	-0.010	-0.055
00:00:10.686	0.040	-0.045
00:00:10.688	0.030	-0.045
00:00:10.690	0.055	-0.045
00:00:10.692	0.035	-0.045
00:00:10.694	0.070	-0.055
00:00:10.696	0.040	-0.065
00:00:10.698	-0.100	-0.075
00:00:10.700	-0.140	-0.085
00:00:10.702	-0.175	-0.095
00:00:10.704	-0.130	-0.095
00:00:10.706	-0.095	-0.090
00:00:10.708	0.025	-0.085
00:00:10.710	0.095	-0.070
00:00:10.712	0.095	-0.055
00:00:10.714	0.080	-0.045
00:00:10.716	0.060	-0.035
00:00:10.718	-0.055	-0.025
00:00:10.720	-0.110	-0.025
00:00:10.722	-0.080	-0.030
00:00:10.724	-0.100	-0.040
00:00:10.726	-0.010	-0.050
00:00:10.728	0.025	-0.060
00:00:10.730	0.100	-0.065
00:00:10.732	0.110	-0.060
00:00:10.734	-0.005	-0.055
00:00:10.736	-0.030	-0.045
00:00:10.738	-0.020	-0.035
00:00:10.740	-0.045	-0.020
00:00:10.742	-0.030	-0.010
00:00:10.744	0.025	-0.005
00:00:10.746	0.120	-0.005
00:00:10.748	0.105	-0.010
00:00:10.750	0.040	-0.020
00:00:10.752	-0.005	-0.025
00:00:10.754	0.020	-0.035
00:00:10.756	0.000	-0.040
00:00:10.758	0.010	-0.040
00:00:10.760	-0.045	-0.040
00:00:10.762	-0.040	-0.040
00:00:10.764	0.000	-0.045
00:00:10.766	-0.045	-0.050
00:00:10.768	-0.020	-0.060
00:00:10.770	0.005	-0.070
00:00:10.772	0.000	-0.085
00:00:10.774	-0.040	-0.100
00:00:10.776	-0.070	-0.110
00:00:10.778	-0.110	-0.110
00:00:10.780	-0.130	-0.110
00:00:10.782	-0.105	-0.100
00:00:10.784	-0.065	-0.085
00:00:10.786	-0.020	-0.075
00:00:10.788	0.075	-0.065
00:00:10.790	0.045	-0.060
00:00:10.792	0.025	-0.065
00:00:10.794	0.030	-0.075
00:00:10.796	-0.025	-0.090
00:00:10.798	-0.150	-0.110
00:00:10.800	-0.175	-0.125
00:00:10.802	-0.235	-0.135
00:00:10.804	-0.200	-0.140
00:00:10.806	-0.160	-0.130
00:00:10.808	-0.105	-0.120
00:00:10.810	0.160	-0.100
00:00:10.812	0.090	-0.085
00:00:10.814	-0.010	-0.070
00:00:10.816	-0.095	-0.065
00:00:10.818	-0.055	-0.065
00:00:10.820	-0.075	-0.070
00:00:10.822	-0.130	-0.080
00:00:10.824	-0.115	-0.090
00:00:10.826	-0.095	-0.095
00:00:10.828	0.020	-0.100
00:00:10.830	-0.040	-0.100
00:00:10.832	0.040	-0.095
00:00:10.834	0.025	-0.090
00:00:10.836	-0.025	-0.085
00:00:10.838	-0.085	-0.085
00:00:10.840	-0.150	-0.090
00:00:10.842	-0.210	-0.095
00:00:10.844	-0.070	-0.100
00:00:10.846	-0.065	-0.105
00:00:10.848	-0.100	-0.110
00:00:10.850	-0.075	-0.105
00:00:10.852	0.000	-0.105
00:00:10.854	0.150	-0.100
00:00:10.856	0.020	-0.095
00:00:10.858	-0.145	-0.095
00:00:10.860	-0.205	-0.095
00:00:10.862	-0.170	-0.095
00:00:10.864	-0.100	-0.085
00:00:10.866	-0.060	-0.070
00:00:10.868	0.075	-0.040
00:00:10.870	0.120	0.015
00:00:10.872	0.155	0.085
00:00:10.874	0.225	0.180
00:00:10.876	0.325	0.285
00:00:10.878	0.525	0.395
00:00:10.880	0.575	0.505
00:00:10.882	0.580	0.595
00:00:10.884	0.635	0.655
00:00:10.886	0.760	0.685
00:00:10.888	0.850	0.680
00:00:10.890	0.735	0.635
00:00:10.892	0.660	0.560
00:00:10.894	0.515	0.460
00:00:10.896	0.355	0.345
00:00:10.898	0.230	0.230
00:00:10.900	0.100	0.120
00:00:10.902	-0.015	0.020
00:00:10.904	-0.220	-0.055
00:00:10.906	-0.100	-0.110
00:00:10.908	-0.110	-0.135
00:00:10.910	-0.070	-0.140
00:00:10.912	0.065	-0.130
00:00:10.914	0.020	-0.110
00:00:10.916	-0.020	-0.080
00:00:10.918	-0.095	-0.055
00:00:10.920	-0.065	-0.035
00:00:10.922	-0.065	-0.020
00:00:10.924	-0.095	-0.020
00:00:10.926	-0.065	-0.025
00:00:10.928	-0.010	-0.035
00:00:10.930	0.140	-0.050
00:00:10.932	0.145	-0.060
00:00:10.934	0.015	-0.060
00:00:10.936	-0.015	-0.060
00:00:10.938	-0.110	-0.050
00:00:10.940	-0.115	-0.035
00:00:10.942	-0.070	-0.020
00:00:10.944	0.015	-0.010
00:00:10.946	0.100	0.000
00:00:10.948	0.170	0.000
00:00:10.950	0.120	-0.005
00:00:10.952	0.075	-0.015
00:00:10.954	0.070	-0.025
00:00:10.956	-0.090	-0.025
00:00:10.958	-0.095	-0.025
00:00:10.960	-0.055	-0.020
00:00:10.962	-0.015	-0.005
00:00:10.964	0.110	0.005
00:00:10.966	0.110	0.020
00:00:10.968	0.110	0.020
00:00:10.970	0.090	0.015
00:00:10.972	0.080	0.005
00:00:10.974	0.015	-0.015
00:00:10.976	-0.030	-0.040
00:00:10.978	-0.040	-0.060
00:00:10.980	-0.215	-0.070
00:00:10.982	-0.135	-0.070
00:00:10.984	0.045	-0.065
00:00:10.986	0.050	-0.050
00:00:10.988	0.095	-0.030
00:00:10.990	0.160	-0.015
00:00:10.992	0.050	-0.005
00:00:10.994	0.040	0.000
00:00:10.996	0.030	-0.005
00:00:10.998	-0.070	-0.015
00:00:11.000	-0.090	-0.025
00:00:11.002	-0.105	-0.030
00:00:11.004	-0.095	-0.025
00:00:11.006	0.040	-0.015
00:00:11.008	0.210	0.000
00:00:11.010	0.220	0.020
00:00:11.012	0.130	0.040
00:00:11.014	0.045	0.055
00:00:11.016	-0.015	0.065
00:00:11.018	0.050	0.065
00:00:11.020	0.010	0.055
00:00:11.022	0.105	0.045
00:00:11.024	0.050	0.040
00:00:11.026	0.065	0.035
00:00:11.028	0.115	0.035
00:00:11.030	0.195	0.040
00:00:11.032	0.180	0.050
00:00:11.034	0.125	0.060
00:00:11.036	0.020	0.065
00:00:11.038	-0.030	0.070
00:00:11.040	0.035	0.065
00:00:11.042	0.075	0.055
00:00:11.044	0.080	0.045
00:00:11.046	0.110	0.035
00:00:11.048	0.070	0.035
00:00:11.050	0.125	0.040
00:00:11.052	0.130	0.045
00:00:11.054	0.170	0.060
00:00:11.056	0.125	0.070
00:00:11.058	0.120	0.080
00:00:11.060	0.035	0.090
00:00:11.062	0.085	0.090
00:00:11.064	0.070	0.090
00:00:11.066	0.120	0.090
00:00:11.068	0.170	0.095
00:00:11.070	0.180	0.100
00:00:11.072	0.240	0.115
00:00:11.074	0.250	0.130
00:00:11.076	0.125	0.150
00:00:11.078	0.145	0.170
00:00:11.080	0.215	0.185
00:00:11.082	0.190	0.195
00:00:11.084	0.225	0.200
00:00:11.086	0.195	0.195
00:00:11.088	0.245	0.195
00:00:11.090	0.270	0.190
00:00:11.092	0.310	0.190
00:00:11.094	0.415	0.200
00:00:11.096	0.225	0.210
00:00:11.098	0.135	0.230
00:00:11.100	0.145	0.245
00:00:11.102	0.270	0.265
00:00:11.104	0.310	0.280
00:00:11.106	0.365	0.290
00:00:11.108	0.380	0.295
00:00:11.110	0.365	0.295
00:00:11.112	0.350	0.290
00:00:11.114	0.310	0.280
00:00:11.116	0.275	0.270
00:00:11.118	0.265	0.260
00:00:11.120	0.235	0.245
00:00:11.122	0.220	0.235
00:00:11.124	0.175	0.220
00:00:11.126	0.285	0.210
00:00:11.128	0.240	0.200
00:00:11.130	0.305	0.190
00:00:11.132	0.310	0.185
00:00:11.134	0.230	0.185
00:00:11.136	0.160	0.185
00:00:11.138	0.155	0.185
00:00:11.140	0.165	0.190
00:00:11.142	0.220	0.185
00:00:11.144	0.245	0.180
00:00:11.146	0.170	0.160
00:00:11.148	0.185	0.140
00:00:11.150	0.210	0.115
00:00:11.152	0.125	0.085
00:00:11.154	0.130	0.065
00:00:11.156	0.045	0.055
00:00:11.158	0.050	0.050
00:00:11.160	-0.030	0.055
00:00:11.162	0.055	0.065
00:00:11.164	0.215	0.070
00:00:11.166	0.145	0.075
00:00:11.168	0.120	0.070
00:00:11.170	0.090	0.055
00:00:11.172	0.020	0.035
00:00:11.174	-0.005	0.005
00:00:11.176	-0.025	-0.025
00:00:11.178	0.010	-0.045
00:00:11.180	-0.115	-0.060
00:00:11.182	-0.100	-0.060
00:00:11.184	-0.085	-0.050
00:00:11.186	0.090	-0.035
00:00:11.188	0.075	-0.015
00:00:11.190	0.115	-0.005
00:00:11.192	0.060	0.000
00:00:11.194	-0.030	-0.005
00:00:11.196	-0.065	-0.025
00:00:11.198	-0.085	-0.050
00:00:11.200	-0.120	-0.075
00:00:11.202	-0.155	-0.100
00:00:11.204	-0.095	-0.115
00:00:11.206	-0.030	-0.120
00:00:11.208	0.035	-0.115
00:00:11.210	0.065	-0.100
00:00:11.212	-0.005	-0.080
00:00:11.214	-0.080	-0.060
00:00:11.216	-0.090	-0.045
00:00:11.218	-0.095	-0.035
00:00:11.220	-0.050	-0.030
00:00:11.222	-0.040	-0.035
00:00:11.224	-0.005	-0.045
00:00:11.226	0.015	-0.050
00:00:11.228	0.020	-0.060
00:00:11.230	0.045	-0.065
00:00:11.232	-0.010	-0.065
00:00:11.234	-0.090	-0.065
00:00:11.236	-0.095	-0.060
00:00:11.238	-0.080	-0.060
00:00:11.240	-0.095	-0.060
00:00:11.242	-0.060	-0.065
00:00:11.244	0.050	-0.070
00:00:11.246	0.080	-0.080
00:00:11.248	0.000	-0.090
00:00:11.250	-0.070	-0.095
00:00:11.252	-0.075	-0.100
00:00:11.254	-0.105	-0.100
00:00:11.256	-0.215	-0.100
00:00:11.258	-0.090	-0.090
00:00:11.260	-0.100	-0.085
00:00:11.262	-0.005	-0.075
00:00:11.264	0.010	-0.065
00:00:11.266	0.050	-0.060
00:00:11.268	0.040	-0.050
00:00:11.270	-0.020	-0.050
00:00:11.272	-0.065	-0.045
00:00:11.274	-0.105	-0.040
00:00:11.276	-0.045	-0.040
00:00:11.278	-0.040	-0.035
00:00:11.280	-0.015	-0.035
00:00:11.282	-0.015	-0.035
00:00:11.284	0.035	-0.035
00:00:11.286	0.010	-0.040
00:00:11.288	0.050	-0.050
00:00:11.290	0.005	-0.055
00:00:11.292	-0.060	-0.065
00:00:11.294	-0.105	-0.065
00:00:11.296	-0.175	-0.065
00:00:11.298	-0.095	-0.055
00:00:11.300	-0.015	-0.045
00:00:11.302	0.015	-0.030
00:00:11.304	0.150	-0.015
00:00:11.306	0.075	-0.005
00:00:11.308	0.060	-0.005
00:00:11.310	0.040	-0.005
00:00:11.312	0.095	-0.015
00:00:11.314	-0.045	-0.030
00:00:11.316	-0.150	-0.050
00:00:11.318	-0.160	-0.070
00:00:11.320	-0.055	-0.085
00:00:11.322	-0.120	-0.100
00:00:11.324	-0.105	-0.105
00:00:11.326	-0.005	-0.105
00:00:11.328	0.055	-0.100
00:00:11.330	0.020	-0.095
00:00:11.332	-0.085	-0.090
00:00:11.334	-0.075	-0.085
00:00:11.336	-0.110	-0.080
00:00:11.338	-0.130	-0.075
00:00:11.340	-0.140	-0.065
00:00:11.342	-0.160	-0.060
00:00:11.344	0.010	-0.050
00:00:11.346	0.180	-0.045
00:00:11.348	0.075	-0.040
00:00:11.350	0.050	-0.035
00:00:11.352	-0.065	-0.035
00:00:11.354	-0.065	-0.045
00:00:11.356	-0.005	-0.055
00:00:11.358	-0.120	-0.070
00:00:11.360	-0.215	-0.085
00:00:11.362	-0.140	-0.095
00:00:11.364	0.015	-0.095
00:00:11.366	0.070	-0.090
00:00:11.368	0.060	-0.080
00:00:11.370	0.040	-0.060
00:00:11.372	-0.025	-0.040
00:00:11.374	-0.040	-0.025
00:00:11.376	-0.095	-0.010
00:00:11.378	-0.120	-0.010
00:00:11.380	-0.115	-0.015
00:00:11.382	0.005	-0.025
00:00:11.384	0.135	-0.045
00:00:11.386	0.085	-0.060
00:00:11.388	0.000	-0.075
00:00:11.390	-0.030	-0.085
00:00:11.392	-0.035	-0.090
00:00:11.394	-0.120	-0.085
00:00:11.396	-0.235	-0.080
00:00:11.398	-0.080	-0.070
00:00:11.400	-0.020	-0.060
00:00:11.402	-0.055	-0.055
00:00:11.404	-0.005	-0.050
00:00:11.406	-0.010	-0.050
00:00:11.408	0.050	-0.055
00:00:11.410	0.005	-0.055
00:00:11.412	0.015	-0.060
00:00:11.414	-0.030	-0.070
00:00:11.416	-0.050	-0.075
00:00:11.418	-0.125	-0.080
00:00:11.420	-0.165	-0.090
00:00:11.422	-0.160	-0.100
00:00:11.424	-0.165	-0.105
00:00:11.426	-0.050	-0.110
00:00:11.428	0.075	-0.110
00:00:11.430	-0.015	-0.105
00:00:11.432	0.005	-0.095
00:00:11.434	-0.040	-0.080
00:00:11.436	-0.125	-0.065
00:00:11.438	-0.115	-0.050
00:00:11.440	-0.035	-0.040
00:00:11.442	-0.010	-0.035
00:00:11.444	-0.015	-0.035
00:00:11.446	0.015	-0.045
00:00:11.448	0.050	-0.060
00:00:11.450	-0.020	-0.080
00:00:11.452	-0.135	-0.095
00:00:11.454	-0.120	-0.105
00:00:11.456	-0.025	-0.110
00:00:11.458	-0.135	-0.110
00:00:11.460	-0.125	-0.105
00:00:11.462	-0.100	-0.100
00:00:11.464	-0.045	-0.090
00:00:11.466	-0.025	-0.080
00:00:11.468	-0.020	-0.075
00:00:11.470	0.005	-0.075
00:00:11.472	0.005	-0.080
00:00:11.474	-0.005	-0.085
00:00:11.476	-0.155	-0.095
00:00:11.478	-0.235	-0.110
00:00:11.480	-0.140	-0.115
00:00:11.482	-0.095	-0.120
00:00:11.484	-0.030	-0.120
00:00:11.486	0.025	-0.120
00:00:11.488	0.020	-0.110
00:00:11.490	-0.115	-0.095
00:00:11.492	-0.145	-0.085
00:00:11.494	-0.030	-0.070
00:00:11.496	-0.075	-0.060
00:00:11.498	-0.085	-0.055
00:00:11.500	-0.050	-0.055
00:00:11.502	0.020	-0.060
00:00:11.504	0.025	-0.065
00:00:11.506	-0.015	-0.070
00:00:11.508	-0.045	-0.075
00:00:11.510	-0.085	-0.075
00:00:11.512	-0.090	-0.065
00:00:11.514	-0.105	-0.055
00:00:11.516	-0.020	-0.045
00:00:11.518	-0.020	-0.030
00:00:11.520	0.070	-0.020
00:00:11.522	0.060	-0.010
00:00:11.524	0.025	-0.010
00:00:11.526	-0.055	-0.020
00:00:11.528	0.040	-0.030
00:00:11.530	-0.045	-0.040
00:00:11.532	-0.140	-0.050
00:00:11.534	0.005	-0.055
00:00:11.536	-0.085	-0.055
00:00:11.538	-0.090	-0.050
00:00:11.540	0.020	-0.040
00:00:11.542	0.025	-0.030
00:00:11.544	0.065	-0.020
00:00:11.546	0.035	-0.015
00:00:11.548	-0.045	-0.020
00:00:11.550	0.010	-0.030
00:00:11.552	-0.035	-0.040
00:00:11.554	-0.110	-0.055
00:00:11.556	-0.120	-0.065
00:00:11.558	-0.090	-0.070
00:00:11.560	-0.040	-0.065
00:00:11.562	0.065	-0.055
00:00:11.564	0.055	-0.040
00:00:11.566	0.085	-0.020
00:00:11.568	0.000	-0.010
00:00:11.570	-0.030	0.000
00:00:11.572	0.035	0.000
00:00:11.574	0.020	-0.005
00:00:11.576	-0.090	-0.020
00:00:11.578	-0.135	-0.040
00:00:11.580	-0.065	-0.060
00:00:11.582	0.015	-0.075
00:00:11.584	0.030	-0.085
00:00:11.586	0.020	-0.090
00:00:11.588	-0.020	-0.090
00:00:11.590	-0.075	-0.085
00:00:11.592	-0.100	-0.085
00:00:11.594	-0.090	-0.080
00:00:11.596	-0.135	-0.075
00:00:11.598	-0.165	-0.080
00:00:11.600	-0.065	-0.080
00:00:11.602	-0.045	-0.090
00:00:11.604	0.075	-0.095
00:00:11.606	0.005	-0.095
00:00:11.608	-0.065	-0.100
00:00:11.610	-0.135	-0.100
00:00:11.612	-0.265	-0.095
00:00:11.614	-0.105	-0.095
00:00:11.616	-0.080	-0.095
00:00:11.618	-0.055	-0.095
00:00:11.620	-0.050	-0.095
00:00:11.622	-0.075	-0.100
00:00:11.624	-0.035	-0.100
00:00:11.626	-0.065	-0.105
00:00:11.628	-0.050	-0.110
00:00:11.630	-0.065	-0.110
00:00:11.632	-0.150	-0.110
00:00:11.634	-0.170	-0.105
00:00:11.636	-0.135	-0.100
00:00:11.638	-0.090	-0.090
00:00:11.640	-0.020	-0.085
00:00:11.642	0.055	-0.080
00:00:11.644	0.025	-0.075
00:00:11.646	-0.040	-0.075
00:00:11.648	-0.115	-0.075
00:00:11.650	-0.080	-0.070
00:00:11.652	-0.130	-0.070
00:00:11.654	-0.105	-0.070
00:00:11.656	-0.085	-0.065
00:00:11.658	-0.020	-0.065
00:00:11.660	0.005	-0.065
00:00:11.662	-0.020	-0.070
00:00:11.664	0.000	-0.080
00:00:11.666	-0.055	-0.090
00:00:11.668	-0.125	-0.110
00:00:11.670	-0.095	-0.130
00:00:11.672	-0.190	-0.150
00:00:11.674	-0.240	-0.165
00:00:11.676	-0.255	-0.170
00:00:11.678	-0.185	-0.165
00:00:11.680	-0.045	-0.145
00:00:11.682	-0.040	-0.115
00:00:11.684	-0.010	-0.075
00:00:11.686	0.035	-0.025
00:00:11.688	0.085	0.030
00:00:11.690	0.155	0.090
00:00:11.692	0.165	0.155
00:00:11.694	0.160	0.225
00:00:11.696	0.270	0.300
00:00:11.698	0.365	0.375
00:00:11.700	0.470	0.445
00:00:11.702	0.680	0.510
00:00:11.704	0.700	0.560
00:00:11.706	0.730	0.585
00:00:11.708	0.665	0.580
00:00:11.710	0.520	0.540
00:00:11.712	0.390	0.475
00:00:11.714	0.290	0.380
00:00:11.716	0.120	0.270
00:00:11.718	0.210	0.155
00:00:11.720	0.170	0.045
00:00:11.722	-0.020	-0.045
00:00:11.724	-0.110	-0.110
00:00:11.726	-0.115	-0.145
00:00:11.728	-0.105	-0.155
00:00:11.730	-0.105	-0.145
00:00:11.732	-0.095	-0.125
00:00:11.734	-0.065	-0.100
00:00:11.736	-0.205	-0.075
00:00:11.738	-0.130	-0.060
00:00:11.740	-0.015	-0.045
00:00:11.742	0.030	-0.040
00:00:11.744	0.095	-0.040
00:00:11.746	0.115	-0.040
00:00:11.748	0.095	-0.035
00:00:11.750	-0.105	-0.030
00:00:11.752	-0.125	-0.025
00:00:11.754	-0.035	-0.020
00:00:11.756	-0.050	-0.020
00:00:11.758	-0.035	-0.020
00:00:11.760	-0.045	-0.030
00:00:11.762	-0.040	-0.040
00:00:11.764	0.025	-0.050
00:00:11.766	0.040	-0.060
00:00:11.768	0.070	-0.070
00:00:11.770	0.040	-0.070
00:00:11.772	-0.145	-0.060
00:00:11.774	-0.110	-0.050
00:00:11.776	-0.125	-0.035
00:00:11.778	0.005	-0.020
00:00:11.780	0.055	-0.005
00:00:11.782	0.105	0.010
00:00:11.784	0.135	0.015
00:00:11.786	0.045	0.010
00:00:11.788	-0.010	0.005
00:00:11.790	-0.060	-0.010
00:00:11.792	-0.065	-0.020
00:00:11.794	-0.085	-0.035
00:00:11.796	-0.060	-0.045
00:00:11.798	0.020	-0.045
00:00:11.800	0.040	-0.045
00:00:11.802	-0.015	-0.035
00:00:11.804	0.025	-0.025
00:00:11.806	0.040	-0.010
00:00:11.808	-0.025	0.005
00:00:11.810	0.045	0.020
00:00:11.812	0.010	0.025
00:00:11.814	0.120	0.025
00:00:11.816	-0.075	0.025
00:00:11.818	-0.010	0.015
00:00:11.820	0.030	0.005
00:00:11.822	0.005	-0.005
00:00:11.824	0.090	-0.015
00:00:11.826	0.040	-0.020
00:00:11.828	0.025	-0.015
00:00:11.830	-0.035	-0.010
00:00:11.832	-0.010	-0.005
00:00:11.834	-0.075	0.005
00:00:11.836	-0.025	0.015
00:00:11.838	0.080	0.020
00:00:11.840	0.075	0.020
00:00:11.842	0.115	0.020
00:00:11.844	0.110	0.020
00:00:11.846	0.040	0.020
00:00:11.848	-0.050	0.025
00:00:11.850	-0.060	0.035
00:00:11.852	0.045	0.045
00:00:11.854	0.110	0.060
00:00:11.856	0.200	0.080
00:00:11.858	0.060	0.095
00:00:11.860	0.130	0.100
00:00:11.862	0.245	0.105
00:00:11.864	0.160	0.100
00:00:11.866	0.080	0.085
00:00:11.868	0.020	0.070
00:00:11.870	-0.025	0.050
00:00:11.872	-0.055	0.030
00:00:11.874	-0.075	0.020
00:00:11.876	0.035	0.015
00:00:11.878	0.115	0.020
00:00:11.880	0.085	0.035
00:00:11.882	0.135	0.055
00:00:11.884	0.255	0.080
00:00:11.886	0.200	0.105
00:00:11.888	0.100	0.125
00:00:11.890	0.050	0.145
00:00:11.892	0.050	0.155
00:00:11.894	0.125	0.160
00:00:11.896	0.225	0.165
00:00:11.898	0.220	0.170
00:00:11.900	0.250	0.175
00:00:11.902	0.265	0.180
00:00:11.904	0.275	0.190
00:00:11.906	0.275	0.200
00:00:11.908	0.245	0.210
00:00:11.910	0.155	0.220
00:00:11.912	0.110	0.230
00:00:11.914	0.170	0.235
00:00:11.916	0.275	0.240
00:00:11.918	0.250	0.250
00:00:11.920	0.350	0.255
00:00:11.922	0.400	0.265
00:00:11.924	0.365	0.270
00:00:11.926	0.385	0.280
00:00:11.928	0.275	0.280
00:00:11.930	0.085	0.280
00:00:11.932	0.200	0.280
00:00:11.934	0.280	0.270
00:00:11.936	0.275	0.265
00:00:11.938	0.290	0.255
00:00:11.940	0.305	0.245
00:00:11.942	0.275	0.245
00:00:11.944	0.270	0.245
00:00:11.946	0.365	0.245
00:00:11.948	0.240	0.245
00:00:11.950	0.235	0.245
00:00:11.952	0.220	0.245
00:00:11.954	0.170	0.235
00:00:11.956	0.155	0.225
00:00:11.958	0.120	0.210
00:00:11.960	0.275	0.190
00:00:11.962	0.265	0.170
00:00:11.964	0.245	0.145
00:00:11.966	0.180	0.125
00:00:11.968	0.135	0.110
00:00:11.970	0.075	0.095
00:00:11.972	-0.035	0.085
00:00:11.974	-0.045	0.075
00:00:11.976	-0.010	0.070
00:00:11.978	0.110	0.070
00:00:11.980	0.150	0.065
00:00:11.982	0.160	0.065
00:00:11.984	0.150	0.065
00:00:11.986	0.070	0.055
00:00:11.988	0.055	0.050
00:00:11.990	0.005	0.035
00:00:11.992	-0.060	0.020
00:00:11.994	-0.055	0.010
00:00:11.996	-0.095	-0.005
00:00:11.998	-0.035	-0.015
00:00:12.000	0.085	-0.015
00:00:12.002	0.160	-0.015
00:00:12.004	0.125	-0.010
00:00:12.006	0.120	0.000
00:00:12.008	-0.050	0.010
00:00:12.010	-0.170	0.015
00:00:12.012	-0.030	0.015
00:00:12.014	-0.035	0.005
00:00:12.016	-0.030	-0.005
00:00:12.018	0.000	-0.015
00:00:12.020	-0.020	-0.025
00:00:12.022	0.035	-0.035
00:00:12.024	0.070	-0.040
00:00:12.026	0.025	-0.035
00:00:12.028	-0.060	-0.035
00:00:12.030	-0.050	-0.030
00:00:12.032	-0.050	-0.030
00:00:12.034	-0.105	-0.035
00:00:12.036	-0.055	-0.045
00:00:12.038	0.015	-0.055
00:00:12.040	-0.025	-0.060
00:00:12.042	-0.070	-0.065
00:00:12.044	0.050	-0.060
00:00:12.046	0.035	-0.050
00:00:12.048	-0.050	-0.035
00:00:12.050	-0.050	-0.020
00:00:12.052	-0.025	0.000
00:00:12.054	-0.035	0.005
00:00:12.056	-0.025	0.010
00:00:12.058	0.010	0.000
00:00:12.060	0.005	-0.015
00:00:12.062	0.055	-0.035
00:00:12.064	-0.025	-0.050
00:00:12.066	-0.035	-0.065
00:00:12.068	-0.090	-0.070
00:00:12.070	-0.125	-0.070
00:00:12.072	-0.075	-0.060
00:00:12.074	-0.010	-0.045
00:00:12.076	0.035	-0.030
00:00:12.078	-0.020	-0.020
00:00:12.080	0.040	-0.010
00:00:12.082	0.060	-0.005
00:00:12.084	0.075	-0.005
00:00:12.086	-0.005	-0.005
00:00:12.088	0.010	-0.005
00:00:12.090	-0.055	-0.005
00:00:12.092	0.010	0.000
00:00:12.094	-0.035	0.010
00:00:12.096	-0.045	0.015
00:00:12.098	0.030	0.015
00:00:12.100	0.090	0.015
00:00:12.102	0.100	0.010
00:00:12.104	0.070	0.010
00:00:12.106	0.025	0.005
00:00:12.108	-0.020	0.000
00:00:12.110	-0.005	0.005
00:00:12.112	0.005	0.010
00:00:12.114	-0.040	0.025
00:00:12.116	-0.020	0.035
00:00:12.118	0.075	0.050
00:00:12.120	0.175	0.055
00:00:12.122	0.165	0.055
00:00:12.124	0.080	0.050
00:00:12.126	0.035	0.035
00:00:12.128	-0.015	0.020
00:00:12.130	-0.035	0.005
00:00:12.132	-0.155	-0.010
00:00:12.134	-0.025	-0.015
00:00:12.136	0.045	-0.020
00:00:12.138	0.115	-0.015
00:00:12.140	0.045	-0.010
00:00:12.142	0.080	0.000
00:00:12.144	0.050	0.010
00:00:12.146	0.090	0.015
00:00:12.148	-0.015	0.015
00:00:12.150	-0.070	0.010
00:00:12.152	-0.070	0.005
00:00:12.154	-0.070	-0.005
00:00:12.156	-0.010	-0.010
00:00:12.158	0.020	-0.015
00:00:12.160	0.125	-0.015
00:00:12.162	0.080	-0.010
00:00:12.164	0.015	-0.010
00:00:12.166	0.025	-0.005
00:00:12.168	-0.005	0.000
00:00:12.170	-0.020	-0.005
00:00:12.172	-0.055	-0.005
00:00:12.174	-0.080	-0.015
00:00:12.176	-0.085	-0.020
00:00:12.178	0.000	-0.030
00:00:12.180	0.060	-0.035
00:00:12.182	0.080	-0.035
00:00:12.184	0.035	-0.035
00:00:12.186	-0.010	-0.030
00:00:12.188	-0.035	-0.020
00:00:12.190	-0.025	-0.010
00:00:12.192	-0.055	-0.005
00:00:12.194	0.010	0.005
00:00:12.196	-0.020	0.010
00:00:12.198	-0.070	0.010
00:00:12.200	0.095	0.010
00:00:12.202	0.140	0.000
00:00:12.204	0.130	-0.010
00:00:12.206	-0.005	-0.025
00:00:12.208	-0.095	-0.040
00:00:12.210	-0.160	-0.060
00:00:12.212	-0.240	-0.075
00:00:12.214	-0.170	-0.085
00:00:12.216	-0.035	-0.090
00:00:12.218	0.055	-0.085
00:00:12.220	0.115	-0.070
00:00:12.222	0.010	-0.050
00:00:12.224	-0.015	-0.030
00:00:12.226	0.040	-0.010
00:00:12.228	0.005	0.005
00:00:12.230	-0.060	0.015
00:00:12.232	-0.050	0.010
00:00:12.234	-0.050	-0.005
00:00:12.236	-0.035	-0.025
00:00:12.238	-0.010	-0.050
00:00:12.240	0.015	-0.070
00:00:12.242	-0.080	-0.080
00:00:12.244	-0.135	-0.080
00:00:12.246	-0.050	-0.070
00:00:12.248	0.020	-0.050
00:00:12.250	0.060	-0.025
00:00:12.252	-0.045	0.000
00:00:12.254	-0.015	0.020
00:00:12.256	0.000	0.025
00:00:12.258	0.010	0.010
00:00:12.260	0.015	-0.015
00:00:12.262	-0.055	-0.050
00:00:12.264	-0.070	-0.085
00:00:12.266	-0.010	-0.115
00:00:12.268	-0.120	-0.135
00:00:12.270	-0.230	-0.140
00:00:12.272	-0.180	-0.130
00:00:12.274	-0.155	-0.100
00:00:12.276	-0.060	-0.065
00:00:12.278	0.030	-0.030
00:00:12.280	0.185	0.005
00:00:12.282	0.200	0.025
00:00:12.284	0.085	0.035
00:00:12.286	-0.035	0.030
00:00:12.288	-0.115	0.015
00:00:12.290	-0.120	-0.005
00:00:12.292	-0.020	-0.025
00:00:12.294	-0.005	-0.040
00:00:12.296	-0.035	-0.045
00:00:12.298	0.025	-0.050
00:00:12.300	-0.025	-0.045
00:00:12.302	0.100	-0.035
00:00:12.304	0.115	-0.030
00:00:12.306	-0.065	-0.020
00:00:12.308	-0.240	-0.020
00:00:12.310	-0.080	-0.020
00:00:12.312	0.045	-0.020
00:00:12.314	0.000	-0.025
00:00:12.316	0.010	-0.025
00:00:12.318	-0.015	-0.025
00:00:12.320	-0.020	-0.025
00:00:12.322	0.030	-0.025
00:00:12.324	0.015	-0.025
00:00:12.326	-0.010	-0.025
00:00:12.328	-0.035	-0.025
00:00:12.330	-0.025	-0.030
00:00:12.332	-0.095	-0.035
00:00:12.334	-0.115	-0.040
00:00:12.336	-0.045	-0.040
00:00:12.338	0.035	-0.035
00:00:12.340	0.095	-0.030
00:00:12.342	0.065	-0.015
00:00:12.344	0.000	0.000
00:00:12.346	0.060	0.015
00:00:12.348	-0.005	0.025
00:00:12.350	-0.070	0.030
00:00:12.352	-0.100	0.025
00:00:12.354	0.085	0.015
