00:00:10.000	0.025	0.095
00:00:10.002	0.020	0.095
00:00:10.004	0.020	0.095
00:00:10.006	0.000	0.090
00:00:10.008	0.005	0.090
00:00:10.010	0.005	0.090
00:00:10.012	0.030	0.090
00:00:10.014	0.030	0.090
00:00:10.016	0.030	0.090
00:00:10.018	0.035	0.085
00:00:10.020	0.015	0.085
00:00:10.022	-0.010	0.080
00:00:10.024	-0.015	0.075
00:00:10.026	-0.005	0.070
00:00:10.028	-0.005	0.070
00:00:10.030	0.010	0.070
00:00:10.032	0.015	0.070
00:00:10.034	0.035	0.070
00:00:10.036	0.035	0.075
00:00:10.038	0.040	0.080
00:00:10.040	0.025	0.085
00:00:10.042	0.015	0.090
00:00:10.044	0.010	0.090
00:00:10.046	0.010	0.090
00:00:10.048	0.020	0.090
00:00:10.050	0.030	0.090
00:00:10.052	0.040	0.090
00:00:10.054	0.045	0.085
00:00:10.056	0.055	0.090
00:00:10.058	0.050	0.090
00:00:10.060	0.045	0.090
00:00:10.062	0.030	0.095
00:00:10.064	0.020	0.100
00:00:10.066	0.025	0.100
00:00:10.068	0.040	0.105
00:00:10.070	0.050	0.105
00:00:10.072	0.075	0.110
00:00:10.074	0.090	0.110
00:00:10.076	0.100	0.115
00:00:10.078	0.095	0.120
00:00:10.080	0.080	0.125
00:00:10.082	0.075	0.130
00:00:10.084	0.045	0.135
00:00:10.086	0.040	0.135
00:00:10.088	0.040	0.140
00:00:10.090	0.055	0.140
00:00:10.092	0.070	0.135
00:00:10.094	0.070	0.135
00:00:10.096	0.080	0.130
00:00:10.098	0.075	0.125
00:00:10.100	0.050	0.125
00:00:10.102	0.025	0.120
00:00:10.104	0.010	0.115
00:00:10.106	-0.005	0.110
00:00:10.108	0.000	0.105
00:00:10.110	0.005	0.095
00:00:10.112	0.000	0.090
00:00:10.114	0.005	0.080
00:00:10.116	0.010	0.070
00:00:10.118	0.010	0.060
00:00:10.120	-0.020	0.050
00:00:10.122	-0.030	0.045
00:00:10.124	-0.040	0.040
00:00:10.126	-0.050	0.040
00:00:10.128	-0.050	0.035
00:00:10.130	-0.040	0.035
00:00:10.132	-0.050	0.030
00:00:10.134	-0.035	0.025
00:00:10.136	-0.035	0.025
00:00:10.138	-0.040	0.020
00:00:10.140	-0.045	0.015
00:00:10.142	-0.050	0.010
00:00:10.144	-0.060	0.005
00:00:10.146	-0.075	0.005
00:00:10.148	-0.075	0.005
00:00:10.150	-0.075	0.000
00:00:10.152	-0.065	0.000
00:00:10.154	-0.060	-0.005
00:00:10.156	-0.050	-0.005
00:00:10.158	-0.060	-0.005
00:00:10.160	-0.065	-0.010
00:00:10.162	-0.085	-0.010
00:00:10.164	-0.085	-0.015
00:00:10.166	-0.095	-0.015
00:00:10.168	-0.090	-0.015
00:00:10.170	-0.070	-0.015
00:00:10.172	-0.075	-0.015
00:00:10.174	-0.075	-0.015
00:00:10.176	-0.070	-0.015
00:00:10.178	-0.060	-0.015
00:00:10.180	-0.070	-0.010
00:00:10.182	-0.075	-0.010
00:00:10.184	-0.090	-0.010
00:00:10.186	-0.100	-0.005
00:00:10.188	-0.085	-0.005
00:00:10.190	-0.080	-0.005
00:00:10.192	-0.085	-0.010
00:00:10.194	-0.075	-0.015
00:00:10.196	-0.075	-0.025
00:00:10.198	-0.095	-0.035
00:00:10.200	-0.120	-0.045
00:00:10.202	-0.125	-0.055
00:00:10.204	-0.145	-0.065
00:00:10.206	-0.170	-0.070
00:00:10.208	-0.155	-0.070
00:00:10.210	-0.145	-0.065
00:00:10.212	-0.115	-0.050
00:00:10.214	-0.070	-0.025
00:00:10.216	-0.005	0.010
00:00:10.218	0.060	0.060
00:00:10.220	0.080	0.125
00:00:10.222	0.135	0.200
00:00:10.224	0.215	0.290
00:00:10.226	0.285	0.385
00:00:10.228	0.410	0.480
00:00:10.230	0.550	0.565
00:00:10.232	0.650	0.630
00:00:10.234	0.685	0.675
00:00:10.236	0.675	0.690
00:00:10.238	0.615	0.670
00:00:10.240	0.535	0.620
00:00:10.242	0.440	0.535
00:00:10.244	0.330	0.430
00:00:10.246	0.230	0.310
00:00:10.248	0.105	0.190
00:00:10.250	-0.010	0.080
00:00:10.252	-0.130	-0.020
00:00:10.254	-0.205	-0.090
00:00:10.256	-0.225	-0.140
00:00:10.258	-0.210	-0.160
00:00:10.260	-0.195	-0.165
00:00:10.262	-0.190	-0.150
00:00:10.264	-0.165	-0.125
00:00:10.266	-0.150	-0.100
00:00:10.268	-0.120	-0.075
00:00:10.270	-0.095	-0.055
00:00:10.272	-0.080	-0.045
00:00:10.274	-0.080	-0.040
00:00:10.276	-0.075	-0.040
00:00:10.278	-0.075	-0.040
00:00:10.280	-0.105	-0.045
00:00:10.282	-0.110	-0.045
00:00:10.284	-0.115	-0.045
00:00:10.286	-0.120	-0.040
00:00:10.288	-0.100	-0.040
00:00:10.290	-0.085	-0.035
00:00:10.292	-0.085	-0.035
00:00:10.294	-0.080	-0.030
00:00:10.296	-0.085	-0.030
00:00:10.298	-0.100	-0.035
00:00:10.300	-0.105	-0.035
00:00:10.302	-0.115	-0.035
00:00:10.304	-0.115	-0.035
00:00:10.306	-0.115	-0.030
00:00:10.308	-0.105	-0.030
00:00:10.310	-0.100	-0.025
00:00:10.312	-0.095	-0.025
00:00:10.314	-0.085	-0.020
00:00:10.316	-0.075	-0.020
00:00:10.318	-0.085	-0.020
00:00:10.320	-0.100	-0.020
00:00:10.322	-0.090	-0.025
00:00:10.324	-0.105	-0.025
00:00:10.326	-0.100	-0.030
00:00:10.328	-0.090	-0.030
00:00:10.330	-0.075	-0.030
00:00:10.332	-0.065	-0.030
00:00:10.334	-0.060	-0.030
00:00:10.336	-0.065	-0.030
00:00:10.338	-0.075	-0.030
00:00:10.340	-0.090	-0.030
00:00:10.342	-0.095	-0.030
00:00:10.344	-0.095	-0.030
00:00:10.346	-0.095	-0.025
00:00:10.348	-0.080	-0.025
00:00:10.350	-0.075	-0.025
00:00:10.352	-0.075	-0.020
00:00:10.354	-0.055	-0.020
00:00:10.356	-0.055	-0.015
00:00:10.358	-0.065	-0.015
00:00:10.360	-0.075	-0.015
00:00:10.362	-0.080	-0.015
00:00:10.364	-0.085	-0.015
00:00:10.366	-0.085	-0.010
00:00:10.368	-0.055	-0.010
00:00:10.370	-0.040	-0.010
00:00:10.372	-0.050	-0.010
00:00:10.374	-0.055	-0.010
00:00:10.376	-0.050	-0.010
00:00:10.378	-0.055	-0.005
00:00:10.380	-0.065	0.000
00:00:10.382	-0.065	0.000
00:00:10.384	-0.060	0.005
00:00:10.386	-0.060	0.010
00:00:10.388	-0.035	0.015
00:00:10.390	-0.025	0.020
00:00:10.392	-0.030	0.020
00:00:10.394	-0.035	0.020
00:00:10.396	-0.040	0.020
00:00:10.398	-0.035	0.020
00:00:10.400	-0.025	0.020
00:00:10.402	-0.035	0.015
00:00:10.404	-0.040	0.015
00:00:10.406	-0.030	0.020
00:00:10.408	-0.025	0.025
00:00:10.410	-0.005	0.030
00:00:10.412	0.005	0.040
00:00:10.414	0.025	0.050
00:00:10.416	0.030	0.060
00:00:10.418	0.010	0.070
00:00:10.420	0.010	0.075
00:00:10.422	0.010	0.080
00:00:10.424	0.015	0.085
00:00:10.426	0.020	0.085
00:00:10.428	0.045	0.085
00:00:10.430	0.060	0.090
00:00:10.432	0.065	0.090
00:00:10.434	0.080	0.095
00:00:10.436	0.080	0.100
00:00:10.438	0.080	0.110
00:00:10.440	0.060	0.120
00:00:10.442	0.070	0.130
00:00:10.444	0.080	0.140
00:00:10.446	0.085	0.145
00:00:10.448	0.090	0.155
00:00:10.450	0.110	0.155
00:00:10.452	0.120	0.160
00:00:10.454	0.120	0.160
00:00:10.456	0.120	0.165
00:00:10.458	0.115	0.165
00:00:10.460	0.110	0.165
00:00:10.462	0.105	0.165
00:00:10.464	0.085	0.165
00:00:10.466	0.085	0.160
00:00:10.468	0.090	0.160
00:00:10.470	0.095	0.155
00:00:10.472	0.110	0.145
00:00:10.474	0.100	0.140
00:00:10.476	0.100	0.135
00:00:10.478	0.075	0.125
00:00:10.480	0.055	0.125
00:00:10.482	0.035	0.120
00:00:10.484	0.030	0.115
00:00:10.486	0.030	0.110
00:00:10.488	0.025	0.105
00:00:10.490	0.030	0.095
00:00:10.492	0.040	0.090
00:00:10.494	0.025	0.075
00:00:10.496	0.015	0.065
00:00:10.498	-0.020	0.055
00:00:10.500	-0.025	0.045
00:00:10.502	-0.050	0.035
00:00:10.504	-0.065	0.030
00:00:10.506	-0.065	0.025
00:00:10.508	-0.050	0.020
00:00:10.510	-0.040	0.020
00:00:10.512	-0.040	0.015
00:00:10.514	-0.045	0.010
00:00:10.516	-0.065	0.000
00:00:10.518	-0.090	-0.010
00:00:10.520	-0.120	-0.020
00:00:10.522	-0.110	-0.035
00:00:10.524	-0.130	-0.045
00:00:10.526	-0.135	-0.060
00:00:10.528	-0.140	-0.065
00:00:10.530	-0.140	-0.075
00:00:10.532	-0.130	-0.080
00:00:10.534	-0.110	-0.080
00:00:10.536	-0.125	-0.080
00:00:10.538	-0.140	-0.085
00:00:10.540	-0.150	-0.085
00:00:10.542	-0.150	-0.085
00:00:10.544	-0.165	-0.085
00:00:10.546	-0.150	-0.090
00:00:10.548	-0.145	-0.090
00:00:10.550	-0.145	-0.095
00:00:10.552	-0.135	-0.100
00:00:10.554	-0.125	-0.100
00:00:10.556	-0.140	-0.105
00:00:10.558	-0.155	-0.110
00:00:10.560	-0.160	-0.110
00:00:10.562	-0.170	-0.110
00:00:10.564	-0.160	-0.105
00:00:10.566	-0.165	-0.100
00:00:10.568	-0.155	-0.095
00:00:10.570	-0.145	-0.095
00:00:10.572	-0.150	-0.090
00:00:10.574	-0.120	-0.085
00:00:10.576	-0.135	-0.080
00:00:10.578	-0.130	-0.075
00:00:10.580	-0.145	-0.075
00:00:10.582	-0.160	-0.075
00:00:10.584	-0.170	-0.070
00:00:10.586	-0.155	-0.070
00:00:10.588	-0.145	-0.070
00:00:10.590	-0.135	-0.070
00:00:10.592	-0.130	-0.075
00:00:10.594	-0.115	-0.075
00:00:10.596	-0.135	-0.080
00:00:10.598	-0.150	-0.085
00:00:10.600	-0.155	-0.085
00:00:10.602	-0.160	-0.090
00:00:10.604	-0.165	-0.095
00:00:10.606	-0.145	-0.095
00:00:10.608	-0.125	-0.095
00:00:10.610	-0.115	-0.095
00:00:10.612	-0.105	-0.090
00:00:10.614	-0.100	-0.085
00:00:10.616	-0.110	-0.085
00:00:10.618	-0.125	-0.080
00:00:10.620	-0.135	-0.080
00:00:10.622	-0.165	-0.075
00:00:10.624	-0.165	-0.075
00:00:10.626	-0.150	-0.075
00:00:10.628	-0.140	-0.080
00:00:10.630	-0.145	-0.080
00:00:10.632	-0.140	-0.080
00:00:10.634	-0.135	-0.085
00:00:10.636	-0.125	-0.085
00:00:10.638	-0.145	-0.090
00:00:10.640	-0.155	-0.090
00:00:10.642	-0.150	-0.090
00:00:10.644	-0.150	-0.090
00:00:10.646	-0.140	-0.090
00:00:10.648	-0.130	-0.085
00:00:10.650	-0.125	-0.085
00:00:10.652	-0.120	-0.080
00:00:10.654	-0.115	-0.080
00:00:10.656	-0.140	-0.075
00:00:10.658	-0.135	-0.075
00:00:10.660	-0.130	-0.075
00:00:10.662	-0.155	-0.075
00:00:10.664	-0.160	-0.075
00:00:10.666	-0.155	-0.080
00:00:10.668	-0.150	-0.080
00:00:10.670	-0.145	-0.085
00:00:10.672	-0.140	-0.090
00:00:10.674	-0.130	-0.095
00:00:10.676	-0.145	-0.095
00:00:10.678	-0.145	-0.100
00:00:10.680	-0.155	-0.100
00:00:10.682	-0.160	-0.095
00:00:10.684	-0.160	-0.095
00:00:10.686	-0.150	-0.095
00:00:10.688	-0.135	-0.090
00:00:10.690	-0.130	-0.090
00:00:10.692	-0.135	-0.095
00:00:10.694	-0.145	-0.095
00:00:10.696	-0.160	-0.100
00:00:10.698	-0.165	-0.100
00:00:10.700	-0.160	-0.105
00:00:10.702	-0.170	-0.110
00:00:10.704	-0.170	-0.110
00:00:10.706	-0.155	-0.110
00:00:10.708	-0.140	-0.110
00:00:10.710	-0.130	-0.105
00:00:10.712	-0.140	-0.100
00:00:10.714	-0.150	-0.100
00:00:10.716	-0.155	-0.095
00:00:10.718	-0.160	-0.095
00:00:10.720	-0.165	-0.090
00:00:10.722	-0.180	-0.090
00:00:10.724	-0.185	-0.090
00:00:10.726	-0.165	-0.090
00:00:10.728	-0.160	-0.095
00:00:10.730	-0.155	-0.095
00:00:10.732	-0.140	-0.095
00:00:10.734	-0.145	-0.095
00:00:10.736	-0.155	-0.095
00:00:10.738	-0.170	-0.090
00:00:10.740	-0.165	-0.090
00:00:10.742	-0.180	-0.090
00:00:10.744	-0.160	-0.090
00:00:10.746	-0.155	-0.090
00:00:10.748	-0.140	-0.095
00:00:10.750	-0.145	-0.100
00:00:10.752	-0.135	-0.105
00:00:10.754	-0.160	-0.110
00:00:10.756	-0.170	-0.115
00:00:10.758	-0.190	-0.115
00:00:10.760	-0.215	-0.115
00:00:10.762	-0.210	-0.110
00:00:10.764	-0.200	-0.110
00:00:10.766	-0.170	-0.105
00:00:10.768	-0.150	-0.100
00:00:10.770	-0.140	-0.100
00:00:10.772	-0.150	-0.100
00:00:10.774	-0.155	-0.105
00:00:10.776	-0.155	-0.105
00:00:10.778	-0.180	-0.110
00:00:10.780	-0.185	-0.115
00:00:10.782	-0.190	-0.115
00:00:10.784	-0.190	-0.120
00:00:10.786	-0.175	-0.120
00:00:10.788	-0.155	-0.120
00:00:10.790	-0.150	-0.115
00:00:10.792	-0.145	-0.115
00:00:10.794	-0.150	-0.115
00:00:10.796	-0.160	-0.115
00:00:10.798	-0.165	-0.115
00:00:10.800	-0.170	-0.115
00:00:10.802	-0.160	-0.110
00:00:10.804	-0.160	-0.110
00:00:10.806	-0.150	-0.110
00:00:10.808	-0.145	-0.105
00:00:10.810	-0.135	-0.100
00:00:10.812	-0.125	-0.095
00:00:10.814	-0.140	-0.090
00:00:10.816	-0.145	-0.085
00:00:10.818	-0.150	-0.080
00:00:10.820	-0.160	-0.075
00:00:10.822	-0.170	-0.070
00:00:10.824	-0.150	-0.065
00:00:10.826	-0.135	-0.065
00:00:10.828	-0.105	-0.060
00:00:10.830	-0.100	-0.060
00:00:10.832	-0.095	-0.060
00:00:10.834	-0.090	-0.060
00:00:10.836	-0.105	-0.060
00:00:10.838	-0.125	-0.060
00:00:10.840	-0.125	-0.060
00:00:10.842	-0.125	-0.055
00:00:10.844	-0.105	-0.050
00:00:10.846	-0.090	-0.045
00:00:10.848	-0.085	-0.045
00:00:10.850	-0.110	-0.040
00:00:10.852	-0.100	-0.040
00:00:10.854	-0.115	-0.040
00:00:10.856	-0.120	-0.045
00:00:10.858	-0.135	-0.050
00:00:10.860	-0.145	-0.060
00:00:10.862	-0.155	-0.065
00:00:10.864	-0.140	-0.070
00:00:10.866	-0.140	-0.080
00:00:10.868	-0.145	-0.085
00:00:10.870	-0.155	-0.090
00:00:10.872	-0.160	-0.095
00:00:10.874	-0.175	-0.100
00:00:10.876	-0.170	-0.105
00:00:10.878	-0.180	-0.110
00:00:10.880	-0.175	-0.110
00:00:10.882	-0.175	-0.110
00:00:10.884	-0.170	-0.110
00:00:10.886	-0.170	-0.105
00:00:10.888	-0.150	-0.100
00:00:10.890	-0.155	-0.095
00:00:10.892	-0.155	-0.090
00:00:10.894	-0.160	-0.090
00:00:10.896	-0.175	-0.085
00:00:10.898	-0.180	-0.085
00:00:10.900	-0.195	-0.090
00:00:10.902	-0.195	-0.090
00:00:10.904	-0.185	-0.095
00:00:10.906	-0.180	-0.100
00:00:10.908	-0.175	-0.105
00:00:10.910	-0.165	-0.110
00:00:10.912	-0.180	-0.110
00:00:10.914	-0.195	-0.115
00:00:10.916	-0.205	-0.115
00:00:10.918	-0.200	-0.115
00:00:10.920	-0.195	-0.120
00:00:10.922	-0.205	-0.120
00:00:10.924	-0.180	-0.125
00:00:10.926	-0.170	-0.125
00:00:10.928	-0.170	-0.130
00:00:10.930	-0.165	-0.130
00:00:10.932	-0.155	-0.130
00:00:10.934	-0.180	-0.125
00:00:10.936	-0.190	-0.125
00:00:10.938	-0.210	-0.120
00:00:10.940	-0.210	-0.120
00:00:10.942	-0.210	-0.120
00:00:10.944	-0.215	-0.120
00:00:10.946	-0.185	-0.120
00:00:10.948	-0.185	-0.120
00:00:10.950	-0.170	-0.120
00:00:10.952	-0.160	-0.120
00:00:10.954	-0.160	-0.125
00:00:10.956	-0.200	-0.125
00:00:10.958	-0.235	-0.130
00:00:10.960	-0.230	-0.135
00:00:10.962	-0.245	-0.140
00:00:10.964	-0.240	-0.150
00:00:10.966	-0.245	-0.155
00:00:10.968	-0.235	-0.160
00:00:10.970	-0.205	-0.155
00:00:10.972	-0.175	-0.145
00:00:10.974	-0.160	-0.115
00:00:10.976	-0.090	-0.065
00:00:10.978	-0.030	0.000
00:00:10.980	0.005	0.080
00:00:10.982	0.080	0.175
00:00:10.984	0.195	0.270
00:00:10.986	0.305	0.365
00:00:10.988	0.435	0.445
00:00:10.990	0.515	0.505
00:00:10.992	0.520	0.540
00:00:10.994	0.505	0.550
00:00:10.996	0.440	0.525
00:00:10.998	0.385	0.475
00:00:11.000	0.310	0.400
00:00:11.002	0.215	0.310
00:00:11.004	0.125	0.205
00:00:11.006	0.035	0.105
00:00:11.008	-0.085	0.005
00:00:11.010	-0.180	-0.080
00:00:11.012	-0.255	-0.150
00:00:11.014	-0.300	-0.200
00:00:11.016	-0.285	-0.225
00:00:11.018	-0.285	-0.235
00:00:11.020	-0.280	-0.230
00:00:11.022	-0.265	-0.210
00:00:11.024	-0.225	-0.185
00:00:11.026	-0.200	-0.160
00:00:11.028	-0.165	-0.140
00:00:11.030	-0.150	-0.120
00:00:11.032	-0.155	-0.110
00:00:11.034	-0.155	-0.105
00:00:11.036	-0.170	-0.100
00:00:11.038	-0.185	-0.100
00:00:11.040	-0.195	-0.100
00:00:11.042	-0.175	-0.100
00:00:11.044	-0.155	-0.100
00:00:11.046	-0.155	-0.095
00:00:11.048	-0.150	-0.095
00:00:11.050	-0.155	-0.090
00:00:11.052	-0.155	-0.085
00:00:11.054	-0.170	-0.080
00:00:11.056	-0.150	-0.075
00:00:11.058	-0.145	-0.075
00:00:11.060	-0.155	-0.075
00:00:11.062	-0.155	-0.075
00:00:11.064	-0.150	-0.075
00:00:11.066	-0.140	-0.075
00:00:11.068	-0.125	-0.075
00:00:11.070	-0.105	-0.075
00:00:11.072	-0.130	-0.075
00:00:11.074	-0.150	-0.075
00:00:11.076	-0.135	-0.075
00:00:11.078	-0.150	-0.070
00:00:11.080	-0.160	-0.070
00:00:11.082	-0.150	-0.070
00:00:11.084	-0.145	-0.075
00:00:11.086	-0.125	-0.075
00:00:11.088	-0.115	-0.075
00:00:11.090	-0.105	-0.075
00:00:11.092	-0.110	-0.070
00:00:11.094	-0.110	-0.070
00:00:11.096	-0.120	-0.065
00:00:11.098	-0.135	-0.060
00:00:11.100	-0.125	-0.055
00:00:11.102	-0.115	-0.050
00:00:11.104	-0.105	-0.045
00:00:11.106	-0.110	-0.045
00:00:11.108	-0.115	-0.045
00:00:11.110	-0.110	-0.045
00:00:11.112	-0.115	-0.045
00:00:11.114	-0.130	-0.050
00:00:11.116	-0.120	-0.050
00:00:11.118	-0.120	-0.050
00:00:11.120	-0.140	-0.045
00:00:11.122	-0.140	-0.045
00:00:11.124	-0.120	-0.040
00:00:11.126	-0.105	-0.040
00:00:11.128	-0.085	-0.035
00:00:11.130	-0.085	-0.035
00:00:11.132	-0.080	-0.035
00:00:11.134	-0.085	-0.035
00:00:11.136	-0.090	-0.035
00:00:11.138	-0.100	-0.030
00:00:11.140	-0.090	-0.025
00:00:11.142	-0.095	-0.020
00:00:11.144	-0.080	-0.015
00:00:11.146	-0.065	-0.005
00:00:11.148	-0.060	0.005
00:00:11.150	-0.035	0.010
00:00:11.152	-0.045	0.015
00:00:11.154	-0.060	0.020
00:00:11.156	-0.055	0.025
00:00:11.158	-0.050	0.025
00:00:11.160	-0.050	0.025
00:00:11.162	-0.040	0.025
00:00:11.164	-0.030	0.025
00:00:11.166	-0.020	0.030
00:00:11.168	-0.010	0.035
00:00:11.170	0.005	0.040
00:00:11.172	0.010	0.045
00:00:11.174	-0.020	0.050
00:00:11.176	-0.025	0.055
00:00:11.178	-0.015	0.055
00:00:11.180	-0.005	0.060
00:00:11.182	0.010	0.060
00:00:11.184	0.030	0.065
00:00:11.186	0.045	0.070
00:00:11.188	0.050	0.080
00:00:11.190	0.055	0.090
00:00:11.192	0.060	0.100
00:00:11.194	0.055	0.110
00:00:11.196	0.055	0.120
00:00:11.198	0.055	0.130
00:00:11.200	0.055	0.135
00:00:11.202	0.070	0.140
00:00:11.204	0.085	0.145
00:00:11.206	0.095	0.145
00:00:11.208	0.100	0.150
00:00:11.210	0.115	0.155
00:00:11.212	0.110	0.155
00:00:11.214	0.095	0.160
00:00:11.216	0.095	0.160
00:00:11.218	0.075	0.165
00:00:11.220	0.065	0.165
00:00:11.222	0.075	0.165
00:00:11.224	0.120	0.160
00:00:11.226	0.085	0.160
00:00:11.228	0.095	0.160
00:00:11.230	0.110	0.160
00:00:11.232	0.095	0.160
00:00:11.234	0.075	0.160
00:00:11.236	0.055	0.155
00:00:11.238	0.040	0.150
00:00:11.240	0.035	0.145
00:00:11.242	0.020	0.135
00:00:11.244	0.035	0.125
00:00:11.246	0.035	0.110
00:00:11.248	0.025	0.095
00:00:11.250	0.035	0.080
00:00:11.252	0.000	0.070
00:00:11.254	-0.030	0.060
00:00:11.256	-0.030	0.055
00:00:11.258	-0.035	0.050
00:00:11.260	-0.050	0.045
00:00:11.262	-0.070	0.035
00:00:11.264	-0.070	0.030
00:00:11.266	-0.070	0.020
00:00:11.268	-0.060	0.010
00:00:11.270	-0.075	-0.005
00:00:11.272	-0.100	-0.015
00:00:11.274	-0.110	-0.025
00:00:11.276	-0.125	-0.035
00:00:11.278	-0.145	-0.045
00:00:11.280	-0.155	-0.050
00:00:11.282	-0.155	-0.055
00:00:11.284	-0.135	-0.060
00:00:11.286	-0.135	-0.070
00:00:11.288	-0.130	-0.075
00:00:11.290	-0.115	-0.080
00:00:11.292	-0.145	-0.085
00:00:11.294	-0.145	-0.085
00:00:11.296	-0.145	-0.085
00:00:11.298	-0.165	-0.085
00:00:11.300	-0.160	-0.085
00:00:11.302	-0.150	-0.085
00:00:11.304	-0.155	-0.080
00:00:11.306	-0.140	-0.085
00:00:11.308	-0.150	-0.085
00:00:11.310	-0.150	-0.095
00:00:11.312	-0.175	-0.100
00:00:11.314	-0.170	-0.110
00:00:11.316	-0.170	-0.115
00:00:11.318	-0.170	-0.120
00:00:11.320	-0.165	-0.120
00:00:11.322	-0.165	-0.120
00:00:11.324	-0.155	-0.115
00:00:11.326	-0.155	-0.110
00:00:11.328	-0.145	-0.100
00:00:11.330	-0.145	-0.095
00:00:11.332	-0.170	-0.085
00:00:11.334	-0.160	-0.080
00:00:11.336	-0.165	-0.075
00:00:11.338	-0.165	-0.070
00:00:11.340	-0.155	-0.070
00:00:11.342	-0.150	-0.070
00:00:11.344	-0.150	-0.075
00:00:11.346	-0.135	-0.075
00:00:11.348	-0.135	-0.080
00:00:11.350	-0.135	-0.080
00:00:11.352	-0.155	-0.080
00:00:11.354	-0.170	-0.085
00:00:11.356	-0.170	-0.085
00:00:11.358	-0.155	-0.080
00:00:11.360	-0.150	-0.080
00:00:11.362	-0.150	-0.080
00:00:11.364	-0.145	-0.075
00:00:11.366	-0.140	-0.075
00:00:11.368	-0.135	-0.070
00:00:11.370	-0.150	-0.070
00:00:11.372	-0.155	-0.070
00:00:11.374	-0.165	-0.075
00:00:11.376	-0.160	-0.075
00:00:11.378	-0.165	-0.080
00:00:11.380	-0.155	-0.085
00:00:11.382	-0.150	-0.085
00:00:11.384	-0.140	-0.090
00:00:11.386	-0.130	-0.090
00:00:11.388	-0.120	-0.090
00:00:11.390	-0.135	-0.090
00:00:11.392	-0.150	-0.085
00:00:11.394	-0.155	-0.085
00:00:11.396	-0.160	-0.085
00:00:11.398	-0.160	-0.085
00:00:11.400	-0.145	-0.085
00:00:11.402	-0.145	-0.085
00:00:11.404	-0.135	-0.085
00:00:11.406	-0.135	-0.085
00:00:11.408	-0.120	-0.080
00:00:11.410	-0.135	-0.075
00:00:11.412	-0.145	-0.070
00:00:11.414	-0.140	-0.065
00:00:11.416	-0.145	-0.060
00:00:11.418	-0.160	-0.060
00:00:11.420	-0.150	-0.055
00:00:11.422	-0.145	-0.055
00:00:11.424	-0.135	-0.060
00:00:11.426	-0.135	-0.065
00:00:11.428	-0.125	-0.065
00:00:11.430	-0.140	-0.070
00:00:11.432	-0.155	-0.075
00:00:11.434	-0.150	-0.075
00:00:11.436	-0.155	-0.075
00:00:11.438	-0.165	-0.070
00:00:11.440	-0.150	-0.070
00:00:11.442	-0.150	-0.070
00:00:11.444	-0.140	-0.070
00:00:11.446	-0.140	-0.075
00:00:11.448	-0.135	-0.075
00:00:11.450	-0.140	-0.080
00:00:11.452	-0.155	-0.085
00:00:11.454	-0.165	-0.090
00:00:11.456	-0.160	-0.090
00:00:11.458	-0.180	-0.090
00:00:11.460	-0.170	-0.085
00:00:11.462	-0.160	-0.080
00:00:11.464	-0.165	-0.075
00:00:11.466	-0.130	-0.070
00:00:11.468	-0.140	-0.070
00:00:11.470	-0.145	-0.065
00:00:11.472	-0.155	-0.070
00:00:11.474	-0.155	-0.070
00:00:11.476	-0.165	-0.075
00:00:11.478	-0.170	-0.075
00:00:11.480	-0.155	-0.075
00:00:11.482	-0.145	-0.075
00:00:11.484	-0.130	-0.075
00:00:11.486	-0.130	-0.075
00:00:11.488	-0.125	-0.070
00:00:11.490	-0.145	-0.070
00:00:11.492	-0.145	-0.070
00:00:11.494	-0.140	-0.070
00:00:11.496	-0.155	-0.070
00:00:11.498	-0.160	-0.070
00:00:11.500	-0.155	-0.070
00:00:11.502	-0.155	-0.070
00:00:11.504	-0.155	-0.070
00:00:11.506	-0.135	-0.065
00:00:11.508	-0.130	-0.065
00:00:11.510	-0.145	-0.065
00:00:11.512	-0.160	-0.065
00:00:11.514	-0.165	-0.065
00:00:11.516	-0.185	-0.070
00:00:11.518	-0.185	-0.075
00:00:11.520	-0.155	-0.075
00:00:11.522	-0.155	-0.080
00:00:11.524	-0.150	-0.080
00:00:11.526	-0.135	-0.080
00:00:11.528	-0.135	-0.080
00:00:11.530	-0.135	-0.080
00:00:11.532	-0.135	-0.080
00:00:11.534	-0.140	-0.075
00:00:11.536	-0.155	-0.075
00:00:11.538	-0.150	-0.070
00:00:11.540	-0.140	-0.065
00:00:11.542	-0.125	-0.060
00:00:11.544	-0.120	-0.060
00:00:11.546	-0.120	-0.055
00:00:11.548	-0.125	-0.055
00:00:11.550	-0.145	-0.055
00:00:11.552	-0.135	-0.055
00:00:11.554	-0.150	-0.055
00:00:11.556	-0.140	-0.060
00:00:11.558	-0.155	-0.060
00:00:11.560	-0.130	-0.060
00:00:11.562	-0.125	-0.060
00:00:11.564	-0.110	-0.055
00:00:11.566	-0.095	-0.050
00:00:11.568	-0.085	-0.045
00:00:11.570	-0.100	-0.035
00:00:11.572	-0.100	-0.030
00:00:11.574	-0.105	-0.025
00:00:11.576	-0.100	-0.020
00:00:11.578	-0.105	-0.020
00:00:11.580	-0.095	-0.025
00:00:11.582	-0.080	-0.025
00:00:11.584	-0.070	-0.025
00:00:11.586	-0.070	-0.025
00:00:11.588	-0.080	-0.025
00:00:11.590	-0.090	-0.025
00:00:11.592	-0.115	-0.025
00:00:11.594	-0.135	-0.030
00:00:11.596	-0.145	-0.035
00:00:11.598	-0.155	-0.045
00:00:11.600	-0.135	-0.055
00:00:11.602	-0.130	-0.065
00:00:11.604	-0.150	-0.075
00:00:11.606	-0.140	-0.085
00:00:11.608	-0.150	-0.090
00:00:11.610	-0.155	-0.095
00:00:11.612	-0.165	-0.095
00:00:11.614	-0.170	-0.095
00:00:11.616	-0.175	-0.090
00:00:11.618	-0.175	-0.090
00:00:11.620	-0.155	-0.085
00:00:11.622	-0.150	-0.085
00:00:11.624	-0.145	-0.080
00:00:11.626	-0.155	-0.080
00:00:11.628	-0.145	-0.080
00:00:11.630	-0.165	-0.080
00:00:11.632	-0.180	-0.080
00:00:11.634	-0.170	-0.080
00:00:11.636	-0.180	-0.080
00:00:11.638	-0.175	-0.080
00:00:11.640	-0.160	-0.085
00:00:11.642	-0.160	-0.085
00:00:11.644	-0.160	-0.090
00:00:11.646	-0.155	-0.090
00:00:11.648	-0.150	-0.090
00:00:11.650	-0.160	-0.090
00:00:11.652	-0.160	-0.080
00:00:11.654	-0.140	-0.075
00:00:11.656	-0.130	-0.060
00:00:11.658	-0.110	-0.050
00:00:11.660	-0.085	-0.040
00:00:11.662	-0.075	-0.030
00:00:11.664	-0.065	-0.020
00:00:11.666	-0.055	-0.010
00:00:11.668	-0.060	-0.005
00:00:11.670	-0.065	0.000
00:00:11.672	-0.065	0.000
00:00:11.674	-0.070	0.005
00:00:11.676	-0.070	0.005
00:00:11.678	-0.050	0.010
00:00:11.680	-0.040	0.010
00:00:11.682	-0.030	0.015
00:00:11.684	-0.025	0.015
00:00:11.686	-0.025	0.015
00:00:11.688	-0.040	0.020
00:00:11.690	-0.045	0.020
00:00:11.692	-0.060	0.025
00:00:11.694	-0.075	0.025
00:00:11.696	-0.090	0.025
00:00:11.698	-0.070	0.025
00:00:11.700	-0.070	0.025
00:00:11.702	-0.070	0.025
00:00:11.704	-0.070	0.025
00:00:11.706	-0.040	0.035
00:00:11.708	0.005	0.050
00:00:11.710	0.030	0.075
00:00:11.712	0.070	0.115
00:00:11.714	0.110	0.165
00:00:11.716	0.150	0.225
00:00:11.718	0.200	0.300
00:00:11.720	0.275	0.375
00:00:11.722	0.370	0.450
00:00:11.724	0.485	0.515
00:00:11.726	0.580	0.570
00:00:11.728	0.610	0.605
00:00:11.730	0.570	0.620
00:00:11.732	0.505	0.610
00:00:11.734	0.440	0.580
00:00:11.736	0.380	0.520
00:00:11.738	0.340	0.445
00:00:11.740	0.285	0.355
00:00:11.742	0.200	0.260
00:00:11.744	0.075	0.170
00:00:11.746	-0.020	0.085
00:00:11.748	-0.110	0.020
00:00:11.750	-0.155	-0.030
00:00:11.752	-0.150	-0.055
00:00:11.754	-0.125	-0.065
00:00:11.756	-0.110	-0.055
00:00:11.758	-0.090	-0.030
00:00:11.760	-0.050	0.000
00:00:11.762	-0.020	0.030
00:00:11.764	0.005	0.055
00:00:11.766	0.025	0.075
00:00:11.768	0.020	0.085
00:00:11.770	0.000	0.090
00:00:11.772	-0.010	0.085
00:00:11.774	-0.020	0.085
00:00:11.776	-0.010	0.080
00:00:11.778	0.000	0.075
00:00:11.780	0.000	0.075
00:00:11.782	0.000	0.075
00:00:11.784	0.000	0.075
00:00:11.786	-0.005	0.075
00:00:11.788	-0.010	0.075
00:00:11.790	-0.015	0.075
00:00:11.792	-0.005	0.075
00:00:11.794	-0.015	0.075
00:00:11.796	-0.005	0.075
00:00:11.798	0.005	0.075
00:00:11.800	0.005	0.075
00:00:11.802	0.020	0.080
00:00:11.804	0.030	0.085
00:00:11.806	0.040	0.090
00:00:11.808	0.015	0.095
00:00:11.810	-0.005	0.095
00:00:11.812	-0.015	0.095
00:00:11.814	-0.020	0.095
00:00:11.816	-0.015	0.090
00:00:11.818	0.000	0.090
00:00:11.820	0.020	0.085
00:00:11.822	0.020	0.080
00:00:11.824	0.035	0.080
00:00:11.826	0.035	0.085
00:00:11.828	0.020	0.085
00:00:11.830	0.010	0.090
00:00:11.832	0.005	0.095
00:00:11.834	0.000	0.100
00:00:11.836	0.000	0.100
00:00:11.838	0.025	0.100
00:00:11.840	0.040	0.100
00:00:11.842	0.025	0.100
00:00:11.844	0.040	0.100
00:00:11.846	0.055	0.100
00:00:11.848	0.030	0.100
00:00:11.850	0.020	0.105
00:00:11.852	0.025	0.105
00:00:11.854	0.015	0.110
00:00:11.856	0.010	0.110
00:00:11.858	0.010	0.110
00:00:11.860	0.025	0.110
00:00:11.862	0.030	0.110
00:00:11.864	0.040	0.110
00:00:11.866	0.045	0.110
00:00:11.868	0.040	0.105
00:00:11.870	0.030	0.110
00:00:11.872	0.020	0.110
00:00:11.874	0.025	0.115
00:00:11.876	0.025	0.120
00:00:11.878	0.035	0.125
00:00:11.880	0.055	0.130
00:00:11.882	0.065	0.135
00:00:11.884	0.070	0.135
00:00:11.886	0.065	0.135
00:00:11.888	0.055	0.135
00:00:11.890	0.040	0.135
00:00:11.892	0.045	0.135
00:00:11.894	0.050	0.135
00:00:11.896	0.045	0.135
00:00:11.898	0.060	0.140
00:00:11.900	0.065	0.140
00:00:11.902	0.070	0.145
00:00:11.904	0.085	0.145
00:00:11.906	0.090	0.150
00:00:11.908	0.080	0.150
00:00:11.910	0.070	0.150
00:00:11.912	0.070	0.150
00:00:11.914	0.075	0.155
00:00:11.916	0.085	0.160
00:00:11.918	0.100	0.165
00:00:11.920	0.115	0.170
00:00:11.922	0.120	0.175
00:00:11.924	0.130	0.185
00:00:11.926	0.145	0.190
00:00:11.928	0.130	0.195
00:00:11.930	0.115	0.200
00:00:11.932	0.115	0.205
00:00:11.934	0.110	0.205
00:00:11.936	0.110	0.210
00:00:11.938	0.130	0.215
00:00:11.940	0.140	0.220
00:00:11.942	0.160	0.225
00:00:11.944	0.170	0.235
00:00:11.946	0.170	0.240
00:00:11.948	0.150	0.240
00:00:11.950	0.125	0.245
00:00:11.952	0.130	0.245
00:00:11.954	0.125	0.240
00:00:11.956	0.140	0.235
00:00:11.958	0.145	0.230
00:00:11.960	0.145	0.225
00:00:11.962	0.135	0.220
00:00:11.964	0.140	0.215
00:00:11.966	0.130	0.210
00:00:11.968	0.110	0.205
00:00:11.970	0.100	0.195
00:00:11.972	0.080	0.190
00:00:11.974	0.055	0.180
00:00:11.976	0.070	0.175
00:00:11.978	0.085	0.165
00:00:11.980	0.080	0.160
00:00:11.982	0.060	0.160
00:00:11.984	0.075	0.155
00:00:11.986	0.060	0.155
00:00:11.988	0.050	0.150
00:00:11.990	0.040	0.145
00:00:11.992	0.015	0.140
00:00:11.994	-0.005	0.130
00:00:11.996	0.005	0.120
00:00:11.998	-0.010	0.105
00:00:12.000	-0.005	0.095
00:00:12.002	-0.015	0.080
00:00:12.004	-0.015	0.070
00:00:12.006	-0.030	0.060
00:00:12.008	-0.045	0.055
00:00:12.010	-0.040	0.050
00:00:12.012	-0.060	0.045
00:00:12.014	-0.070	0.045
00:00:12.016	-0.080	0.045
00:00:12.018	-0.075	0.040
00:00:12.020	-0.070	0.040
00:00:12.022	-0.065	0.035
00:00:12.024	-0.070	0.035
00:00:12.026	-0.070	0.030
00:00:12.028	-0.070	0.030
00:00:12.030	-0.085	0.025
00:00:12.032	-0.090	0.020
00:00:12.034	-0.105	0.015
00:00:12.036	-0.100	0.010
00:00:12.038	-0.105	0.000
00:00:12.040	-0.095	-0.005
00:00:12.042	-0.075	-0.015
00:00:12.044	-0.085	-0.020
00:00:12.046	-0.100	-0.025
00:00:12.048	-0.115	-0.030
00:00:12.050	-0.120	-0.030
00:00:12.052	-0.115	-0.030
00:00:12.054	-0.130	-0.030
00:00:12.056	-0.115	-0.025
00:00:12.058	-0.105	-0.025
00:00:12.060	-0.105	-0.020
00:00:12.062	-0.095	-0.025
00:00:12.064	-0.090	-0.025
00:00:12.066	-0.110	-0.025
00:00:12.068	-0.145	-0.030
00:00:12.070	-0.125	-0.035
00:00:12.072	-0.130	-0.035
00:00:12.074	-0.135	-0.035
00:00:12.076	-0.125	-0.035
00:00:12.078	-0.120	-0.030
00:00:12.080	-0.100	-0.025
00:00:12.082	-0.080	-0.020
00:00:12.084	-0.090	-0.015
00:00:12.086	-0.110	-0.015
00:00:12.088	-0.140	-0.015
00:00:12.090	-0.130	-0.015
00:00:12.092	-0.120	-0.020
00:00:12.094	-0.135	-0.030
00:00:12.096	-0.130	-0.035
00:00:12.098	-0.115	-0.040
00:00:12.100	-0.120	-0.045
00:00:12.102	-0.115	-0.045
00:00:12.104	-0.105	-0.040
00:00:12.106	-0.125	-0.040
00:00:12.108	-0.120	-0.030
00:00:12.110	-0.115	-0.025
00:00:12.112	-0.125	-0.020
00:00:12.114	-0.145	-0.020
00:00:12.116	-0.130	-0.015
00:00:12.118	-0.120	-0.015
00:00:12.120	-0.115	-0.020
00:00:12.122	-0.095	-0.020
00:00:12.124	-0.100	-0.020
00:00:12.126	-0.115	-0.020
00:00:12.128	-0.125	-0.020
00:00:12.130	-0.130	-0.020
00:00:12.132	-0.130	-0.015
00:00:12.134	-0.135	-0.015
00:00:12.136	-0.110	-0.015
00:00:12.138	-0.100	-0.015
00:00:12.140	-0.115	-0.020
00:00:12.142	-0.110	-0.025
00:00:12.144	-0.110	-0.030
00:00:12.146	-0.120	-0.030
00:00:12.148	-0.130	-0.035
00:00:12.150	-0.130	-0.035
00:00:12.152	-0.130	-0.035
00:00:12.154	-0.150	-0.035
00:00:12.156	-0.145	-0.030
00:00:12.158	-0.100	-0.030
00:00:12.160	-0.100	-0.025
00:00:12.162	-0.095	-0.025
00:00:12.164	-0.110	-0.025
00:00:12.166	-0.130	-0.030
00:00:12.168	-0.140	-0.030
00:00:12.170	-0.150	-0.035
00:00:12.172	-0.140	-0.035
00:00:12.174	-0.150	-0.035
00:00:12.176	-0.140	-0.035
00:00:12.178	-0.135	-0.030
00:00:12.180	-0.120	-0.030
00:00:12.182	-0.115	-0.030
00:00:12.184	-0.115	-0.030
00:00:12.186	-0.115	-0.030
00:00:12.188	-0.135	-0.035
00:00:12.190	-0.150	-0.040
00:00:12.192	-0.150	-0.045
00:00:12.194	-0.165	-0.050
00:00:12.196	-0.150	-0.050
00:00:12.198	-0.145	-0.050
00:00:12.200	-0.125	-0.050
00:00:12.202	-0.125	-0.045
00:00:12.204	-0.135	-0.045
00:00:12.206	-0.155	-0.040
00:00:12.208	-0.160	-0.035
00:00:12.210	-0.160	-0.035
00:00:12.212	-0.155	-0.040
00:00:12.214	-0.160	-0.040
00:00:12.216	-0.140	-0.045
00:00:12.218	-0.130	-0.050
00:00:12.220	-0.135	-0.050
00:00:12.222	-0.120	-0.050
00:00:12.224	-0.135	-0.045
00:00:12.226	-0.155	-0.040
00:00:12.228	-0.140	-0.035
00:00:12.230	-0.145	-0.030
00:00:12.232	-0.165	-0.025
00:00:12.234	-0.160	-0.025
00:00:12.236	-0.150	-0.030
00:00:12.238	-0.140	-0.030
00:00:12.240	-0.125	-0.040
00:00:12.242	-0.140	-0.045
00:00:12.244	-0.130	-0.050
00:00:12.246	-0.150	-0.055
00:00:12.248	-0.140	-0.060
00:00:12.250	-0.140	-0.060
00:00:12.252	-0.150	-0.055
00:00:12.254	-0.140	-0.050
00:00:12.256	-0.125	-0.045
00:00:12.258	-0.120	-0.040
00:00:12.260	-0.105	-0.035
00:00:12.262	-0.095	-0.035
00:00:12.264	-0.095	-0.030
00:00:12.266	-0.120	-0.035
00:00:12.268	-0.135	-0.035
00:00:12.270	-0.135	-0.035
00:00:12.272	-0.145	-0.040
00:00:12.274	-0.145	-0.040
00:00:12.276	-0.125	-0.035
00:00:12.278	-0.110	-0.035
00:00:12.280	-0.115	-0.030
00:00:12.282	-0.090	-0.020
00:00:12.284	-0.070	-0.015
00:00:12.286	-0.095	-0.005
00:00:12.288	-0.090	0.000
00:00:12.290	-0.095	0.005
00:00:12.292	-0.110	0.010
00:00:12.294	-0.095	0.010
00:00:12.296	-0.095	0.010
00:00:12.298	-0.085	0.005
00:00:12.300	-0.085	0.000
00:00:12.302	-0.070	-0.005
00:00:12.304	-0.065	-0.010
00:00:12.306	-0.095	-0.015
00:00:12.308	-0.105	-0.020
00:00:12.310	-0.120	-0.020
00:00:12.312	-0.125	-0.020
00:00:12.314	-0.110	-0.025
00:00:12.316	-0.115	-0.025
00:00:12.318	-0.110	-0.025
00:00:12.320	-0.115	-0.025
00:00:12.322	-0.135	-0.025
00:00:12.324	-0.140	-0.030
00:00:12.326	-0.150	-0.035
00:00:12.328	-0.155	-0.035
00:00:12.330	-0.170	-0.040
00:00:12.332	-0.165	-0.045
00:00:12.334	-0.145	-0.045
00:00:12.336	-0.135	-0.050
00:00:12.338	-0.145	-0.055
00:00:12.340	-0.140	-0.060
00:00:12.342	-0.130	-0.060
00:00:12.344	-0.150	-0.065
00:00:12.346	-0.170	-0.065
00:00:12.348	-0.180	-0.070
00:00:12.350	-0.195	-0.070
00:00:12.352	-0.205	-0.070
00:00:12.354	-0.185	-0.070
00:00:12.356	-0.170	-0.070
00:00:12.358	-0.150	-0.070
00:00:12.360	-0.145	-0.075
00:00:12.362	-0.160	-0.080
00:00:12.364	-0.165	-0.085
00:00:12.366	-0.170	-0.085
00:00:12.368	-0.175	-0.090
00:00:12.370	-0.190	-0.090
00:00:12.372	-0.195	-0.090
00:00:12.374	-0.185	-0.085
00:00:12.376	-0.185	-0.085
00:00:12.378	-0.170	-0.080
00:00:12.380	-0.170	-0.075
00:00:12.382	-0.165	-0.075
00:00:12.384	-0.165	-0.075
00:00:12.386	-0.180	-0.075
00:00:12.388	-0.195	-0.075
00:00:12.390	-0.190	-0.075
00:00:12.392	-0.195	-0.070
00:00:12.394	-0.185	-0.070
00:00:12.396	-0.175	-0.065
00:00:12.398	-0.170	-0.060
00:00:12.400	-0.165	-0.060
00:00:12.402	-0.165	-0.055
00:00:12.404	-0.175	-0.060
00:00:12.406	-0.180	-0.065
00:00:12.408	-0.190	-0.070
00:00:12.410	-0.200	-0.080
00:00:12.412	-0.210	-0.090
00:00:12.414	-0.190	-0.100
00:00:12.416	-0.210	-0.110
00:00:12.418	-0.215	-0.115
00:00:12.420	-0.195	-0.115
00:00:12.422	-0.205	-0.110
00:00:12.424	-0.205	-0.100
00:00:12.426	-0.180	-0.085
00:00:12.428	-0.150	-0.060
00:00:12.430	-0.110	-0.030
00:00:12.432	-0.050	0.015
00:00:12.434	0.005	0.065
00:00:12.436	0.045	0.130
00:00:12.438	0.100	0.200
00:00:12.440	0.175	0.275
00:00:12.442	0.275	0.345
00:00:12.444	0.350	0.405
00:00:12.446	0.435	0.455
00:00:12.448	0.420	0.480
00:00:12.450	0.380	0.480
00:00:12.452	0.315	0.455
00:00:12.454	0.255	0.405
00:00:12.456	0.205	0.335
00:00:12.458	0.150	0.245
00:00:12.460	0.070	0.150
00:00:12.462	-0.020	0.060
00:00:12.464	-0.130	-0.025
00:00:12.466	-0.230	-0.090
00:00:12.468	-0.315	-0.140
00:00:12.470	-0.330	-0.170
00:00:12.472	-0.295	-0.185
00:00:12.474	-0.260	-0.180
00:00:12.476	-0.220	-0.170
00:00:12.478	-0.190	-0.150
00:00:12.480	-0.165	-0.130
00:00:12.482	-0.170	-0.115
00:00:12.484	-0.170	-0.100
00:00:12.486	-0.170	-0.090
00:00:12.488	-0.175	-0.080
00:00:12.490	-0.175	-0.080
00:00:12.492	-0.180	-0.075
00:00:12.494	-0.155	-0.070
00:00:12.496	-0.140	-0.065
00:00:12.498	-0.135	-0.060
00:00:12.500	-0.140	-0.055
00:00:12.502	-0.160	-0.045
00:00:12.504	-0.150	-0.040
00:00:12.506	-0.160	-0.040
00:00:12.508	-0.165	-0.035
00:00:12.510	-0.170	-0.035
00:00:12.512	-0.165	-0.035
00:00:12.514	-0.150	-0.040
00:00:12.516	-0.145	-0.045
00:00:12.518	-0.135	-0.045
00:00:12.520	-0.125	-0.050
00:00:12.522	-0.130	-0.055
00:00:12.524	-0.135	-0.055
00:00:12.526	-0.155	-0.060
00:00:12.528	-0.160	-0.065
00:00:12.530	-0.165	-0.065
00:00:12.532	-0.150	-0.070
00:00:12.534	-0.140	-0.070
00:00:12.536	-0.130	-0.065
00:00:12.538	-0.125	-0.065
00:00:12.540	-0.110	-0.060
00:00:12.542	-0.110	-0.050
00:00:12.544	-0.115	-0.040
00:00:12.546	-0.140	-0.035
00:00:12.548	-0.145	-0.025
00:00:12.550	-0.140	-0.020
00:00:12.552	-0.135	-0.020
00:00:12.554	-0.125	-0.015
00:00:12.556	-0.120	-0.015
00:00:12.558	-0.120	-0.020
00:00:12.560	-0.105	-0.020
00:00:12.562	-0.110	-0.025
00:00:12.564	-0.120	-0.025
00:00:12.566	-0.120	-0.025
00:00:12.568	-0.125	-0.025
00:00:12.570	-0.120	-0.025
00:00:12.572	-0.120	-0.025
00:00:12.574	-0.115	-0.025
00:00:12.576	-0.105	-0.025
00:00:12.578	-0.090	-0.025
00:00:12.580	-0.085	-0.025
00:00:12.582	-0.095	-0.025
00:00:12.584	-0.100	-0.020
00:00:12.586	-0.095	-0.020
00:00:12.588	-0.100	-0.015
00:00:12.590	-0.105	-0.010
00:00:12.592	-0.075	-0.005
00:00:12.594	-0.080	0.005
00:00:12.596	-0.065	0.010
00:00:12.598	-0.065	0.015
00:00:12.600	-0.050	0.020
00:00:12.602	-0.065	0.025
00:00:12.604	-0.065	0.030
00:00:12.606	-0.070	0.030
00:00:12.608	-0.055	0.030
00:00:12.610	-0.075	0.030
00:00:12.612	-0.065	0.030
00:00:12.614	-0.055	0.030
00:00:12.616	-0.045	0.030
00:00:12.618	-0.040	0.035
00:00:12.620	-0.025	0.035
00:00:12.622	-0.025	0.035
00:00:12.624	-0.025	0.040
00:00:12.626	-0.025	0.040
00:00:12.628	-0.030	0.050
00:00:12.630	-0.025	0.055
00:00:12.632	-0.015	0.065
00:00:12.634	0.005	0.075
00:00:12.636	0.005	0.085
00:00:12.638	0.015	0.090
00:00:12.640	0.015	0.100
00:00:12.642	0.025	0.105
00:00:12.644	0.015	0.110
00:00:12.646	0.020	0.110
00:00:12.648	0.030	0.115
00:00:12.650	0.010	0.115
00:00:12.652	0.035	0.115
00:00:12.654	0.045	0.115
00:00:12.656	0.060	0.115
00:00:12.658	0.070	0.120
00:00:12.660	0.080	0.125
00:00:12.662	0.070	0.135
00:00:12.664	0.070	0.140
00:00:12.666	0.070	0.145
00:00:12.668	0.065	0.150
00:00:12.670	0.035	0.155
00:00:12.672	0.060	0.160
00:00:12.674	0.065	0.160
00:00:12.676	0.075	0.160
00:00:12.678	0.060	0.155
00:00:12.680	0.090	0.155
00:00:12.682	0.070	0.150
00:00:12.684	0.050	0.140
00:00:12.686	0.045	0.135
00:00:12.688	0.040	0.130
00:00:12.690	0.040	0.125
00:00:12.692	0.040	0.120
00:00:12.694	0.050	0.115
00:00:12.696	0.030	0.115
00:00:12.698	0.030	0.110
00:00:12.700	0.025	0.110
00:00:12.702	0.005	0.105
00:00:12.704	-0.025	0.100
00:00:12.706	-0.035	0.090
00:00:12.708	-0.045	0.080
00:00:12.710	-0.060	0.065
00:00:12.712	-0.065	0.050
00:00:12.714	-0.060	0.035
00:00:12.716	-0.070	0.020
00:00:12.718	-0.070	0.005
00:00:12.720	-0.065	-0.005
00:00:12.722	-0.090	-0.015
00:00:12.724	-0.105	-0.020
00:00:12.726	-0.115	-0.025
00:00:12.728	-0.125	-0.025
00:00:12.730	-0.135	-0.030
00:00:12.732	-0.130	-0.030
00:00:12.734	-0.130	-0.035
00:00:12.736	-0.125	-0.040
00:00:12.738	-0.120	-0.045
00:00:12.740	-0.125	-0.050
00:00:12.742	-0.145	-0.050
00:00:12.744	-0.145	-0.055
00:00:12.746	-0.155	-0.055
00:00:12.748	-0.160	-0.055
00:00:12.750	-0.165	-0.055
00:00:12.752	-0.160	-0.055
00:00:12.754	-0.145	-0.050
00:00:12.756	-0.140	-0.050
00:00:12.758	-0.135	-0.045
00:00:12.760	-0.135	-0.045
00:00:12.762	-0.145	-0.045
00:00:12.764	-0.150	-0.045
00:00:12.766	-0.160	-0.045
00:00:12.768	-0.170	-0.050
00:00:12.770	-0.170	-0.050
00:00:12.772	-0.155	-0.050
00:00:12.774	-0.150	-0.050
00:00:12.776	-0.140	-0.050
00:00:12.778	-0.135	-0.050
00:00:12.780	-0.140	-0.050
00:00:12.782	-0.145	-0.050
00:00:12.784	-0.165	-0.055
00:00:12.786	-0.160	-0.060
00:00:12.788	-0.165	-0.060
00:00:12.790	-0.160	-0.065
00:00:12.792	-0.150	-0.070
00:00:12.794	-0.140	-0.070
00:00:12.796	-0.140	-0.070
00:00:12.798	-0.140	-0.065
00:00:12.800	-0.145	-0.065
00:00:12.802	-0.155	-0.060
00:00:12.804	-0.170	-0.055
00:00:12.806	-0.180	-0.060
00:00:12.808	-0.180	-0.060
00:00:12.810	-0.165	-0.065
00:00:12.812	-0.155	-0.070
00:00:12.814	-0.150	-0.080
00:00:12.816	-0.130	-0.085
00:00:12.818	-0.120	-0.085
00:00:12.820	-0.140	-0.080
00:00:12.822	-0.140	-0.075
00:00:12.824	-0.135	-0.070
00:00:12.826	-0.145	-0.060
00:00:12.828	-0.155	-0.055
00:00:12.830	-0.150	-0.050
00:00:12.832	-0.150	-0.050
00:00:12.834	-0.150	-0.055
00:00:12.836	-0.150	-0.060
00:00:12.838	-0.130	-0.065
00:00:12.840	-0.135	-0.070
00:00:12.842	-0.130	-0.075
00:00:12.844	-0.150	-0.075
00:00:12.846	-0.150	-0.070
00:00:12.848	-0.140	-0.065
00:00:12.850	-0.145	-0.060
00:00:12.852	-0.125	-0.055
00:00:12.854	-0.120	-0.050
00:00:12.856	-0.120	-0.050
00:00:12.858	-0.120	-0.050
00:00:12.860	-0.130	-0.050
00:00:12.862	-0.125	-0.055
00:00:12.864	-0.140	-0.055
00:00:12.866	-0.155	-0.060
00:00:12.868	-0.150	-0.060
00:00:12.870	-0.155	-0.055
00:00:12.872	-0.130	-0.055
00:00:12.874	-0.120	-0.055
00:00:12.876	-0.110	-0.055
00:00:12.878	-0.110	-0.050
00:00:12.880	-0.130	-0.055
00:00:12.882	-0.140	-0.055
00:00:12.884	-0.150	-0.055
00:00:12.886	-0.160	-0.055
00:00:12.888	-0.160	-0.060
00:00:12.890	-0.150	-0.060
00:00:12.892	-0.145	-0.060
00:00:12.894	-0.130	-0.065
00:00:12.896	-0.120	-0.065
00:00:12.898	-0.115	-0.070
00:00:12.900	-0.130	-0.075
00:00:12.902	-0.140	-0.080
00:00:12.904	-0.150	-0.085
00:00:12.906	-0.155	-0.085
00:00:12.908	-0.155	-0.090
00:00:12.910	-0.140	-0.090
00:00:12.912	-0.140	-0.085
00:00:12.914	-0.125	-0.080
00:00:12.916	-0.100	-0.075
00:00:12.918	-0.110	-0.070
00:00:12.920	-0.130	-0.065
00:00:12.922	-0.145	-0.060
00:00:12.924	-0.155	-0.060
00:00:12.926	-0.160	-0.060
00:00:12.928	-0.165	-0.065
00:00:12.930	-0.160	-0.070
00:00:12.932	-0.150	-0.075
00:00:12.934	-0.145	-0.080
00:00:12.936	-0.125	-0.080
00:00:12.938	-0.135	-0.085
00:00:12.940	-0.150	-0.085
00:00:12.942	-0.160	-0.085
00:00:12.944	-0.155	-0.080
00:00:12.946	-0.160	-0.080
00:00:12.948	-0.155	-0.075
00:00:12.950	-0.130	-0.075
00:00:12.952	-0.135	-0.075
00:00:12.954	-0.130	-0.075
00:00:12.956	-0.120	-0.075
00:00:12.958	-0.110	-0.075
00:00:12.960	-0.120	-0.075
00:00:12.962	-0.135	-0.075
00:00:12.964	-0.150	-0.075
00:00:12.966	-0.140	-0.075
00:00:12.968	-0.155	-0.070
00:00:12.970	-0.150	-0.070
00:00:12.972	-0.125	-0.065
00:00:12.974	-0.125	-0.065
00:00:12.976	-0.105	-0.060
00:00:12.978	-0.110	-0.060
00:00:12.980	-0.120	-0.060
00:00:12.982	-0.120	-0.055
00:00:12.984	-0.125	-0.055
00:00:12.986	-0.130	-0.055
00:00:12.988	-0.140	-0.050
00:00:12.990	-0.120	-0.045
00:00:12.992	-0.115	-0.045
00:00:12.994	-0.115	-0.040
00:00:12.996	-0.100	-0.040
00:00:12.998	-0.105	-0.040
00:00:13.000	-0.125	-0.040
00:00:13.002	-0.135	-0.040
00:00:13.004	-0.125	-0.045
00:00:13.006	-0.120	-0.045
00:00:13.008	-0.105	-0.045
00:00:13.010	-0.090	-0.045
00:00:13.012	-0.085	-0.040
00:00:13.014	-0.065	-0.040
00:00:13.016	-0.075	-0.035
00:00:13.018	-0.080	-0.035
00:00:13.020	-0.080	-0.030
00:00:13.022	-0.085	-0.030
00:00:13.024	-0.090	-0.030
00:00:13.026	-0.095	-0.030
00:00:13.028	-0.105	-0.030
00:00:13.030	-0.085	-0.030
00:00:13.032	-0.080	-0.030
00:00:13.034	-0.085	-0.035
00:00:13.036	-0.080	-0.035
00:00:13.038	-0.080	-0.035
00:00:13.040	-0.105	-0.040
00:00:13.042	-0.120	-0.045
00:00:13.044	-0.125	-0.050
00:00:13.046	-0.145	-0.055
00:00:13.048	-0.165	-0.060
00:00:13.050	-0.165	-0.070
00:00:13.052	-0.150	-0.080
00:00:13.054	-0.150	-0.090
00:00:13.056	-0.145	-0.095
00:00:13.058	-0.135	-0.100
00:00:13.060	-0.155	-0.105
00:00:13.062	-0.160	-0.110
00:00:13.064	-0.165	-0.110
00:00:13.066	-0.160	-0.105
00:00:13.068	-0.170	-0.105
00:00:13.070	-0.165	-0.100
00:00:13.072	-0.155	-0.100
00:00:13.074	-0.160	-0.095
00:00:13.076	-0.140	-0.100
00:00:13.078	-0.155	-0.100
00:00:13.080	-0.180	-0.105
00:00:13.082	-0.185	-0.110
00:00:13.084	-0.180	-0.115
00:00:13.086	-0.190	-0.120
00:00:13.088	-0.190	-0.120
00:00:13.090	-0.175	-0.125
00:00:13.092	-0.160	-0.125
00:00:13.094	-0.155	-0.120
00:00:13.096	-0.150	-0.120
00:00:13.098	-0.140	-0.120
00:00:13.100	-0.160	-0.115
00:00:13.102	-0.170	-0.115
00:00:13.104	-0.180	-0.115
00:00:13.106	-0.195	-0.115
00:00:13.108	-0.200	-0.110
00:00:13.110	-0.170	-0.110
00:00:13.112	-0.160	-0.110
00:00:13.114	-0.160	-0.110
00:00:13.116	-0.160	-0.110
00:00:13.118	-0.160	-0.110
00:00:13.120	-0.165	-0.110
00:00:13.122	-0.170	-0.110
00:00:13.124	-0.185	-0.110
00:00:13.126	-0.180	-0.105
00:00:13.128	-0.170	-0.100
00:00:13.130	-0.155	-0.100
00:00:13.132	-0.150	-0.095
00:00:13.134	-0.160	-0.095
00:00:13.136	-0.175	-0.100
00:00:13.138	-0.185	-0.105
00:00:13.140	-0.200	-0.115
00:00:13.142	-0.205	-0.130
00:00:13.144	-0.230	-0.140
00:00:13.146	-0.250	-0.150
00:00:13.148	-0.240	-0.155
00:00:13.150	-0.215	-0.150
00:00:13.152	-0.155	-0.130
00:00:13.154	-0.110	-0.100
00:00:13.156	-0.045	-0.055
00:00:13.158	-0.020	0.005
00:00:13.160	0.035	0.075
00:00:13.162	0.095	0.155
00:00:13.164	0.160	0.240
00:00:13.166	0.235	0.325
00:00:13.168	0.350	0.405
00:00:13.170	0.470	0.470
00:00:13.172	0.565	0.525
00:00:13.174	0.565	0.550
00:00:13.176	0.520	0.550
00:00:13.178	0.450	0.520
00:00:13.180	0.365	0.460
00:00:13.182	0.270	0.370
00:00:13.184	0.175	0.265
00:00:13.186	0.085	0.150
00:00:13.188	-0.035	0.035
00:00:13.190	-0.140	-0.065
00:00:13.192	-0.250	-0.140
00:00:13.194	-0.280	-0.195
00:00:13.196	-0.260	-0.220
00:00:13.198	-0.240	-0.220
00:00:13.200	-0.225	-0.205
00:00:13.202	-0.205	-0.180
00:00:13.204	-0.190	-0.150
00:00:13.206	-0.170	-0.125
00:00:13.208	-0.155	-0.105
00:00:13.210	-0.145	-0.095
00:00:13.212	-0.130	-0.090
00:00:13.214	-0.125	-0.090
00:00:13.216	-0.135	-0.090
00:00:13.218	-0.130	-0.090
00:00:13.220	-0.145	-0.085
00:00:13.222	-0.160	-0.080
00:00:13.224	-0.170	-0.075
00:00:13.226	-0.165	-0.070
00:00:13.228	-0.150	-0.070
00:00:13.230	-0.135	-0.070
00:00:13.232	-0.135	-0.075
00:00:13.234	-0.130	-0.080
00:00:13.236	-0.130	-0.080
00:00:13.238	-0.135	-0.085
00:00:13.240	-0.140	-0.085
00:00:13.242	-0.145	-0.085
00:00:13.244	-0.150	-0.080
00:00:13.246	-0.155	-0.080
00:00:13.248	-0.135	-0.075
00:00:13.250	-0.115	-0.080
00:00:13.252	-0.120	-0.080
00:00:13.254	-0.120	-0.085
00:00:13.256	-0.125	-0.095
00:00:13.258	-0.130	-0.100
00:00:13.260	-0.130	-0.100
00:00:13.262	-0.125	-0.100
00:00:13.264	-0.125	-0.100
00:00:13.266	-0.130	-0.090
00:00:13.268	-0.110	-0.085
00:00:13.270	-0.105	-0.075
00:00:13.272	-0.105	-0.070
00:00:13.274	-0.090	-0.060
00:00:13.276	-0.075	-0.055
00:00:13.278	-0.090	-0.055
00:00:13.280	-0.100	-0.050
00:00:13.282	-0.100	-0.050
00:00:13.284	-0.105	-0.045
00:00:13.286	-0.115	-0.045
00:00:13.288	-0.100	-0.040
00:00:13.290	-0.095	-0.040
00:00:13.292	-0.095	-0.040
00:00:13.294	-0.080	-0.035
00:00:13.296	-0.070	-0.040
00:00:13.298	-0.085	-0.040
00:00:13.300	-0.090	-0.040
00:00:13.302	-0.095	-0.040
00:00:13.304	-0.090	-0.040
00:00:13.306	-0.090	-0.040
00:00:13.308	-0.085	-0.040
00:00:13.310	-0.070	-0.035
00:00:13.312	-0.055	-0.030
00:00:13.314	-0.050	-0.030
00:00:13.316	-0.040	-0.025
00:00:13.318	-0.060	-0.020
00:00:13.320	-0.070	-0.020
00:00:13.322	-0.075	-0.020
00:00:13.324	-0.070	-0.020
00:00:13.326	-0.065	-0.015
00:00:13.328	-0.050	-0.015
00:00:13.330	-0.050	-0.015
00:00:13.332	-0.035	-0.010
00:00:13.334	-0.035	-0.010
00:00:13.336	-0.020	-0.005
00:00:13.338	-0.035	0.000
00:00:13.340	-0.035	0.005
00:00:13.342	-0.030	0.010
00:00:13.344	-0.020	0.015
00:00:13.346	-0.015	0.020
00:00:13.348	-0.015	0.025
00:00:13.350	0.005	0.035
00:00:13.352	0.015	0.045
00:00:13.354	0.035	0.050
00:00:13.356	0.050	0.065
00:00:13.358	0.040	0.075
00:00:13.360	0.010	0.085
00:00:13.362	0.035	0.090
00:00:13.364	0.045	0.100
00:00:13.366	0.045	0.100
00:00:13.368	0.065	0.105
00:00:13.370	0.075	0.105
00:00:13.372	0.085	0.105
00:00:13.374	0.100	0.105
00:00:13.376	0.100	0.105
00:00:13.378	0.100	0.110
00:00:13.380	0.095	0.110
00:00:13.382	0.090	0.120
00:00:13.384	0.085	0.125
00:00:13.386	0.090	0.135
00:00:13.388	0.110	0.140
00:00:13.390	0.120	0.145
00:00:13.392	0.115	0.150
00:00:13.394	0.130	0.155
00:00:13.396	0.130	0.155
00:00:13.398	0.115	0.150
00:00:13.400	0.110	0.150
00:00:13.402	0.110	0.145
00:00:13.404	0.095	0.145
00:00:13.406	0.095	0.145
00:00:13.408	0.095	0.145
00:00:13.410	0.110	0.150
00:00:13.412	0.125	0.155
00:00:13.414	0.145	0.160
00:00:13.416	0.145	0.165
00:00:13.418	0.125	0.170
00:00:13.420	0.135	0.175
00:00:13.422	0.120	0.175
00:00:13.424	0.115	0.175
00:00:13.426	0.125	0.175
00:00:13.428	0.120	0.170
00:00:13.430	0.130	0.165
00:00:13.432	0.120	0.155
00:00:13.434	0.115	0.150
00:00:13.436	0.125	0.145
00:00:13.438	0.105	0.140
00:00:13.440	0.070	0.130
00:00:13.442	0.075	0.125
00:00:13.444	0.060	0.120
00:00:13.446	0.055	0.115
00:00:13.448	0.050	0.115
00:00:13.450	0.065	0.110
00:00:13.452	0.060	0.110
00:00:13.454	0.065	0.105
00:00:13.456	0.065	0.105
00:00:13.458	0.045	0.100
00:00:13.460	0.035	0.095
00:00:13.462	0.010	0.090
00:00:13.464	0.010	0.085
00:00:13.466	0.010	0.080
00:00:13.468	0.030	0.070
00:00:13.470	0.025	0.065
00:00:13.472	0.030	0.065
00:00:13.474	0.035	0.060
00:00:13.476	0.030	0.060
00:00:13.478	0.015	0.060
00:00:13.480	0.000	0.060
00:00:13.482	0.005	0.060
00:00:13.484	-0.005	0.060
00:00:13.486	-0.010	0.060
00:00:13.488	0.015	0.055
00:00:13.490	0.020	0.055
00:00:13.492	0.015	0.050
00:00:13.494	0.015	0.050
00:00:13.496	0.015	0.050
00:00:13.498	0.000	0.050
00:00:13.500	-0.010	0.050
00:00:13.502	-0.025	0.050
00:00:13.504	-0.010	0.050
00:00:13.506	0.010	0.045
00:00:13.508	0.010	0.045
00:00:13.510	0.020	0.040
00:00:13.512	0.020	0.035
00:00:13.514	0.020	0.035
00:00:13.516	0.025	0.030
00:00:13.518	0.020	0.030
00:00:13.520	-0.010	0.030
00:00:13.522	-0.020	0.030
00:00:13.524	-0.015	0.035
00:00:13.526	-0.010	0.035
00:00:13.528	0.000	0.040
00:00:13.530	0.010	0.040
00:00:13.532	0.005	0.045
00:00:13.534	0.030	0.045
00:00:13.536	0.020	0.040
00:00:13.538	0.010	0.040
00:00:13.540	-0.015	0.040
00:00:13.542	-0.020	0.035
00:00:13.544	-0.005	0.040
00:00:13.546	0.000	0.040
00:00:13.548	0.015	0.045
00:00:13.550	0.010	0.045
00:00:13.552	0.030	0.050
00:00:13.554	0.025	0.050
00:00:13.556	0.020	0.055
00:00:13.558	0.005	0.055
00:00:13.560	0.000	0.055
00:00:13.562	-0.010	0.050
00:00:13.564	-0.010	0.050
00:00:13.566	0.010	0.050
00:00:13.568	0.015	0.055
00:00:13.570	0.015	0.055
00:00:13.572	0.025	0.060
00:00:13.574	0.025	0.060
00:00:13.576	0.015	0.060
00:00:13.578	0.000	0.065
00:00:13.580	-0.010	0.065
00:00:13.582	-0.015	0.065
00:00:13.584	-0.010	0.065
00:00:13.586	-0.005	0.065
00:00:13.588	0.005	0.060
00:00:13.590	0.010	0.060
00:00:13.592	0.020	0.060
00:00:13.594	0.025	0.060
00:00:13.596	0.010	0.055
00:00:13.598	-0.005	0.055
00:00:13.600	-0.015	0.050
00:00:13.602	-0.035	0.045
00:00:13.604	-0.025	0.045
00:00:13.606	-0.010	0.040
00:00:13.608	0.005	0.040
00:00:13.610	0.005	0.040
00:00:13.612	0.000	0.035
00:00:13.614	0.005	0.035
00:00:13.616	-0.015	0.035
00:00:13.618	-0.025	0.035
00:00:13.620	-0.020	0.030
00:00:13.622	-0.030	0.030
00:00:13.624	-0.035	0.025
00:00:13.626	-0.015	0.025
00:00:13.628	-0.010	0.025
00:00:13.630	-0.010	0.025
00:00:13.632	-0.005	0.025
00:00:13.634	0.010	0.025
00:00:13.636	-0.010	0.025
00:00:13.638	-0.030	0.020
00:00:13.640	-0.045	0.015
00:00:13.642	-0.055	0.010
00:00:13.644	-0.035	0.005
00:00:13.646	-0.060	-0.005
00:00:13.648	-0.040	-0.010
00:00:13.650	-0.030	-0.010
00:00:13.652	-0.035	-0.010
00:00:13.654	-0.035	-0.010
00:00:13.656	-0.045	-0.010
00:00:13.658	-0.060	-0.005
00:00:13.660	-0.070	0.000
00:00:13.662	-0.075	0.000
00:00:13.664	-0.070	0.000
00:00:13.666	-0.055	0.000
00:00:13.668	-0.040	0.000
00:00:13.670	-0.040	-0.005
00:00:13.672	-0.035	-0.005
00:00:13.674	-0.035	-0.005
00:00:13.676	-0.050	-0.010
00:00:13.678	-0.070	-0.010
00:00:13.680	-0.075	-0.015
00:00:13.682	-0.075	-0.015
00:00:13.684	-0.095	-0.015
00:00:13.686	-0.075	-0.020
00:00:13.688	-0.060	-0.020
00:00:13.690	-0.060	-0.025
00:00:13.692	-0.060	-0.025
00:00:13.694	-0.060	-0.030
00:00:13.696	-0.075	-0.030
00:00:13.698	-0.090	-0.030
00:00:13.700	-0.095	-0.035
00:00:13.702	-0.105	-0.035
00:00:13.704	-0.100	-0.035
00:00:13.706	-0.080	-0.035
00:00:13.708	-0.075	-0.035
00:00:13.710	-0.070	-0.035
00:00:13.712	-0.055	-0.035
00:00:13.714	-0.050	-0.035
00:00:13.716	-0.065	-0.030
00:00:13.718	-0.080	-0.025
00:00:13.720	-0.085	-0.025
00:00:13.722	-0.090	-0.020
00:00:13.724	-0.095	-0.015
00:00:13.726	-0.075	-0.015
00:00:13.728	-0.060	-0.010
00:00:13.730	-0.050	-0.010
00:00:13.732	-0.045	-0.015
00:00:13.734	-0.045	-0.015
00:00:13.736	-0.065	-0.020
00:00:13.738	-0.080	-0.025
00:00:13.740	-0.085	-0.030
00:00:13.742	-0.085	-0.035
00:00:13.744	-0.085	-0.040
00:00:13.746	-0.080	-0.045
00:00:13.748	-0.060	-0.045
00:00:13.750	-0.050	-0.045
00:00:13.752	-0.050	-0.040
00:00:13.754	-0.045	-0.035
00:00:13.756	-0.045	-0.030
00:00:13.758	-0.055	-0.025
00:00:13.760	-0.055	-0.020
00:00:13.762	-0.060	-0.015
00:00:13.764	-0.050	-0.010
00:00:13.766	-0.035	-0.005
00:00:13.768	-0.025	0.000
00:00:13.770	-0.025	0.005
00:00:13.772	-0.020	0.005
00:00:13.774	-0.035	0.010
00:00:13.776	-0.040	0.010
00:00:13.778	-0.055	0.010
00:00:13.780	-0.080	0.005
00:00:13.782	-0.090	0.000
00:00:13.784	-0.090	-0.010
00:00:13.786	-0.085	-0.020
00:00:13.788	-0.090	-0.035
00:00:13.790	-0.105	-0.050
00:00:13.792	-0.110	-0.060
00:00:13.794	-0.120	-0.075
00:00:13.796	-0.120	-0.080
00:00:13.798	-0.145	-0.090
00:00:13.800	-0.140	-0.090
00:00:13.802	-0.145	-0.095
00:00:13.804	-0.135	-0.090
00:00:13.806	-0.120	-0.090
00:00:13.808	-0.110	-0.085
00:00:13.810	-0.100	-0.085
00:00:13.812	-0.110	-0.085
00:00:13.814	-0.115	-0.085
00:00:13.816	-0.120	-0.085
00:00:13.818	-0.140	-0.085
00:00:13.820	-0.150	-0.085
00:00:13.822	-0.165	-0.085
00:00:13.824	-0.155	-0.085
00:00:13.826	-0.140	-0.085
00:00:13.828	-0.135	-0.085
00:00:13.830	-0.120	-0.090
00:00:13.832	-0.125	-0.090
00:00:13.834	-0.135	-0.090
00:00:13.836	-0.145	-0.095
00:00:13.838	-0.165	-0.095
00:00:13.840	-0.165	-0.100
00:00:13.842	-0.160	-0.100
00:00:13.844	-0.145	-0.100
00:00:13.846	-0.145	-0.100
00:00:13.848	-0.140	-0.100
00:00:13.850	-0.120	-0.100
00:00:13.852	-0.110	-0.095
00:00:13.854	-0.115	-0.095
00:00:13.856	-0.130	-0.095
00:00:13.858	-0.145	-0.095
00:00:13.860	-0.150	-0.095
00:00:13.862	-0.160	-0.095
00:00:13.864	-0.155	-0.095
00:00:13.866	-0.135	-0.095
00:00:13.868	-0.145	-0.100
00:00:13.870	-0.125	-0.100
00:00:13.872	-0.120	-0.105
00:00:13.874	-0.150	-0.105
00:00:13.876	-0.170	-0.110
00:00:13.878	-0.180	-0.110
00:00:13.880	-0.180	-0.115
00:00:13.882	-0.185	-0.120
00:00:13.884	-0.175	-0.125
00:00:13.886	-0.175	-0.130
00:00:13.888	-0.195	-0.135
00:00:13.890	-0.180	-0.135
00:00:13.892	-0.165	-0.130
00:00:13.894	-0.155	-0.115
00:00:13.896	-0.125	-0.090
00:00:13.898	-0.075	-0.045
00:00:13.900	-0.025	0.010
00:00:13.902	0.025	0.080
00:00:13.904	0.110	0.165
00:00:13.906	0.205	0.260
00:00:13.908	0.295	0.355
00:00:13.910	0.420	0.445
00:00:13.912	0.545	0.525
00:00:13.914	0.630	0.585
00:00:13.916	0.600	0.620
00:00:13.918	0.570	0.620
00:00:13.920	0.485	0.590
00:00:13.922	0.420	0.530
00:00:13.924	0.355	0.440
00:00:13.926	0.265	0.330
00:00:13.928	0.180	0.215
00:00:13.930	0.050	0.100
00:00:13.932	-0.080	-0.010
00:00:13.934	-0.205	-0.095
00:00:13.936	-0.265	-0.155
00:00:13.938	-0.265	-0.190
00:00:13.940	-0.255	-0.205
00:00:13.942	-0.240	-0.195
00:00:13.944	-0.200	-0.175
00:00:13.946	-0.165	-0.150
00:00:13.948	-0.150	-0.120
00:00:13.950	-0.120	-0.100
00:00:13.952	-0.115	-0.085
00:00:13.954	-0.110	-0.075
00:00:13.956	-0.130	-0.070
00:00:13.958	-0.135	-0.065
00:00:13.960	-0.130	-0.065
00:00:13.962	-0.135	-0.065
00:00:13.964	-0.125	-0.060
00:00:13.966	-0.115	-0.055
00:00:13.968	-0.115	-0.050
00:00:13.970	-0.115	-0.050
00:00:13.972	-0.105	-0.045
00:00:13.974	-0.110	-0.045
00:00:13.976	-0.120	-0.050
00:00:13.978	-0.130	-0.055
00:00:13.980	-0.125	-0.060
00:00:13.982	-0.135	-0.060
00:00:13.984	-0.120	-0.060
00:00:13.986	-0.120	-0.060
00:00:13.988	-0.100	-0.060
00:00:13.990	-0.100	-0.055
00:00:13.992	-0.110	-0.050
00:00:13.994	-0.100	-0.045
00:00:13.996	-0.125	-0.045
00:00:13.998	-0.125	-0.045
00:00:14.000	-0.125	-0.045
00:00:14.002	-0.120	-0.045
00:00:14.004	-0.105	-0.045
00:00:14.006	-0.100	-0.050
00:00:14.008	-0.090	-0.050
00:00:14.010	-0.080	-0.055
00:00:14.012	-0.095	-0.055
00:00:14.014	-0.095	-0.050
00:00:14.016	-0.105	-0.050
00:00:14.018	-0.105	-0.050
00:00:14.020	-0.115	-0.045
00:00:14.022	-0.115	-0.040
00:00:14.024	-0.100	-0.040
00:00:14.026	-0.095	-0.035
00:00:14.028	-0.080	-0.030
00:00:14.030	-0.065	-0.030
00:00:14.032	-0.065	-0.025
00:00:14.034	-0.080	-0.025
00:00:14.036	-0.090	-0.020
00:00:14.038	-0.095	-0.020
00:00:14.040	-0.105	-0.025
00:00:14.042	-0.100	-0.025
00:00:14.044	-0.080	-0.030
00:00:14.046	-0.075	-0.030
00:00:14.048	-0.060	-0.030
00:00:14.050	-0.050	-0.030
00:00:14.052	-0.055	-0.025
00:00:14.054	-0.065	-0.020
00:00:14.056	-0.085	-0.010
00:00:14.058	-0.080	0.000
00:00:14.060	-0.095	0.005
00:00:14.062	-0.070	0.015
00:00:14.064	-0.040	0.020
00:00:14.066	-0.035	0.020
00:00:14.068	-0.030	0.020
00:00:14.070	-0.025	0.020
00:00:14.072	-0.035	0.020
00:00:14.074	-0.035	0.020
00:00:14.076	-0.040	0.020
00:00:14.078	-0.035	0.025
00:00:14.080	-0.045	0.030
00:00:14.082	-0.030	0.035
00:00:14.084	-0.010	0.040
00:00:14.086	0.005	0.045
00:00:14.088	0.010	0.050
00:00:14.090	0.030	0.055
00:00:14.092	0.035	0.060
00:00:14.094	0.025	0.065
00:00:14.096	0.020	0.075
00:00:14.098	0.020	0.080
00:00:14.100	0.030	0.090
00:00:14.102	0.040	0.100
00:00:14.104	0.065	0.110
00:00:14.106	0.070	0.120
00:00:14.108	0.070	0.125
00:00:14.110	0.075	0.130
00:00:14.112	0.070	0.130
00:00:14.114	0.060	0.130
00:00:14.116	0.060	0.130
00:00:14.118	0.065	0.130
00:00:14.120	0.065	0.130
00:00:14.122	0.070	0.130
00:00:14.124	0.095	0.135
00:00:14.126	0.110	0.140
00:00:14.128	0.110	0.150
00:00:14.130	0.120	0.155
00:00:14.132	0.110	0.160
00:00:14.134	0.100	0.160
00:00:14.136	0.085	0.165
00:00:14.138	0.090	0.160
00:00:14.140	0.085	0.160
00:00:14.142	0.090	0.160
00:00:14.144	0.105	0.155
00:00:14.146	0.110	0.155
00:00:14.148	0.110	0.155
00:00:14.150	0.115	0.160
00:00:14.152	0.115	0.160
00:00:14.154	0.100	0.160
00:00:14.156	0.085	0.165
00:00:14.158	0.060	0.160
00:00:14.160	0.060	0.155
00:00:14.162	0.050	0.150
00:00:14.164	0.055	0.140
00:00:14.166	0.055	0.130
00:00:14.168	0.030	0.115
00:00:14.170	0.025	0.105
00:00:14.172	0.030	0.095
00:00:14.174	0.005	0.090
00:00:14.176	0.005	0.080
00:00:14.178	-0.015	0.075
00:00:14.180	-0.030	0.075
00:00:14.182	-0.025	0.070
00:00:14.184	-0.015	0.065
00:00:14.186	-0.020	0.060
00:00:14.188	-0.030	0.055
00:00:14.190	-0.030	0.045
00:00:14.192	-0.060	0.035
00:00:14.194	-0.075	0.025
00:00:14.196	-0.080	0.020
00:00:14.198	-0.100	0.010
00:00:14.200	-0.095	0.005
00:00:14.202	-0.100	0.000
00:00:14.204	-0.095	-0.005
00:00:14.206	-0.095	-0.010
00:00:14.208	-0.105	-0.015
00:00:14.210	-0.105	-0.020
00:00:14.212	-0.115	-0.025
00:00:14.214	-0.135	-0.030
00:00:14.216	-0.140	-0.035
00:00:14.218	-0.145	-0.035
00:00:14.220	-0.140	-0.035
00:00:14.222	-0.135	-0.035
00:00:14.224	-0.125	-0.035
00:00:14.226	-0.115	-0.030
00:00:14.228	-0.115	-0.030
00:00:14.230	-0.115	-0.030
00:00:14.232	-0.125	-0.030
00:00:14.234	-0.135	-0.035
00:00:14.236	-0.135	-0.035
00:00:14.238	-0.150	-0.040
00:00:14.240	-0.150	-0.045
00:00:14.242	-0.130	-0.045
00:00:14.244	-0.115	-0.050
00:00:14.246	-0.120	-0.050
00:00:14.248	-0.110	-0.050
00:00:14.250	-0.120	-0.050
00:00:14.252	-0.135	-0.055
00:00:14.254	-0.150	-0.055
00:00:14.256	-0.155	-0.055
00:00:14.258	-0.155	-0.060
00:00:14.260	-0.145	-0.060
00:00:14.262	-0.135	-0.065
00:00:14.264	-0.130	-0.065
00:00:14.266	-0.125	-0.065
00:00:14.268	-0.110	-0.065
00:00:14.270	-0.110	-0.065
00:00:14.272	-0.115	-0.065
00:00:14.274	-0.125	-0.070
00:00:14.276	-0.130	-0.070
00:00:14.278	-0.140	-0.070
00:00:14.280	-0.145	-0.070
00:00:14.282	-0.140	-0.070
00:00:14.284	-0.130	-0.070
00:00:14.286	-0.125	-0.070
00:00:14.288	-0.120	-0.065
00:00:14.290	-0.115	-0.060
00:00:14.292	-0.130	-0.055
00:00:14.294	-0.120	-0.050
00:00:14.296	-0.125	-0.045
00:00:14.298	-0.135	-0.040
00:00:14.300	-0.140	-0.040
00:00:14.302	-0.135	-0.035
00:00:14.304	-0.120	-0.035
00:00:14.306	-0.115	-0.035
00:00:14.308	-0.110	-0.035
00:00:14.310	-0.115	-0.035
00:00:14.312	-0.135	-0.035
00:00:14.314	-0.140	-0.040
00:00:14.316	-0.145	-0.040
00:00:14.318	-0.145	-0.045
00:00:14.320	-0.135	-0.050
00:00:14.322	-0.115	-0.055
00:00:14.324	-0.115	-0.055
00:00:14.326	-0.105	-0.060
00:00:14.328	-0.110	-0.065
00:00:14.330	-0.120	-0.065
00:00:14.332	-0.125	-0.065
00:00:14.334	-0.135	-0.065
00:00:14.336	-0.140	-0.060
00:00:14.338	-0.160	-0.055
00:00:14.340	-0.150	-0.055
00:00:14.342	-0.130	-0.050
00:00:14.344	-0.120	-0.045
00:00:14.346	-0.110	-0.040
00:00:14.348	-0.115	-0.040
00:00:14.350	-0.130	-0.040
00:00:14.352	-0.145	-0.040
00:00:14.354	-0.130	-0.040
00:00:14.356	-0.150	-0.045
00:00:14.358	-0.160	-0.050
00:00:14.360	-0.145	-0.050
00:00:14.362	-0.135	-0.055
00:00:14.364	-0.120	-0.055
00:00:14.366	-0.125	-0.055
00:00:14.368	-0.135	-0.055
00:00:14.370	-0.135	-0.055
00:00:14.372	-0.150	-0.050
00:00:14.374	-0.145	-0.050
00:00:14.376	-0.165	-0.050
00:00:14.378	-0.165	-0.055
00:00:14.380	-0.170	-0.055
00:00:14.382	-0.145	-0.060
00:00:14.384	-0.120	-0.065
00:00:14.386	-0.130	-0.070
00:00:14.388	-0.125	-0.070
00:00:14.390	-0.140	-0.075
00:00:14.392	-0.150	-0.075
00:00:14.394	-0.160	-0.075
00:00:14.396	-0.155	-0.070
00:00:14.398	-0.150	-0.065
00:00:14.400	-0.155	-0.060
00:00:14.402	-0.140	-0.055
00:00:14.404	-0.135	-0.055
00:00:14.406	-0.140	-0.050
00:00:14.408	-0.135	-0.050
00:00:14.410	-0.150	-0.050
00:00:14.412	-0.155	-0.055
00:00:14.414	-0.165	-0.060
00:00:14.416	-0.160	-0.060
00:00:14.418	-0.175	-0.065
00:00:14.420	-0.170	-0.070
00:00:14.422	-0.165	-0.075
00:00:14.424	-0.155	-0.075
00:00:14.426	-0.140	-0.075
00:00:14.428	-0.140	-0.075
00:00:14.430	-0.155	-0.070
00:00:14.432	-0.165	-0.070
00:00:14.434	-0.160	-0.065
00:00:14.436	-0.160	-0.065
00:00:14.438	-0.175	-0.065
00:00:14.440	-0.155	-0.065
00:00:14.442	-0.160	-0.060
00:00:14.444	-0.145	-0.060
00:00:14.446	-0.135	-0.060
00:00:14.448	-0.140	-0.060
00:00:14.450	-0.155	-0.055
00:00:14.452	-0.155	-0.055
00:00:14.454	-0.160	-0.055
00:00:14.456	-0.165	-0.050
00:00:14.458	-0.175	-0.050
00:00:14.460	-0.165	-0.050
00:00:14.462	-0.155	-0.050
00:00:14.464	-0.140	-0.050
00:00:14.466	-0.125	-0.055
00:00:14.468	-0.130	-0.055
00:00:14.470	-0.140	-0.055
00:00:14.472	-0.150	-0.055
00:00:14.474	-0.155	-0.055
00:00:14.476	-0.160	-0.055
00:00:14.478	-0.180	-0.055
00:00:14.480	-0.165	-0.050
00:00:14.482	-0.155	-0.050
00:00:14.484	-0.140	-0.050
00:00:14.486	-0.140	-0.050
00:00:14.488	-0.140	-0.050
00:00:14.490	-0.150	-0.055
00:00:14.492	-0.150	-0.055
00:00:14.494	-0.135	-0.055
00:00:14.496	-0.135	-0.055
00:00:14.498	-0.160	-0.055
00:00:14.500	-0.135	-0.055
00:00:14.502	-0.125	-0.055
00:00:14.504	-0.120	-0.050
00:00:14.506	-0.100	-0.050
00:00:14.508	-0.095	-0.045
00:00:14.510	-0.110	-0.045
00:00:14.512	-0.135	-0.040
00:00:14.514	-0.135	-0.040
00:00:14.516	-0.130	-0.040
00:00:14.518	-0.125	-0.040
00:00:14.520	-0.125	-0.040
00:00:14.522	-0.115	-0.040
00:00:14.524	-0.110	-0.035
00:00:14.526	-0.110	-0.035
00:00:14.528	-0.090	-0.030
00:00:14.530	-0.100	-0.025
00:00:14.532	-0.115	-0.020
00:00:14.534	-0.110	-0.015
00:00:14.536	-0.105	-0.010
00:00:14.538	-0.100	-0.005
00:00:14.540	-0.100	0.000
00:00:14.542	-0.090	0.000
00:00:14.544	-0.090	0.000
00:00:14.546	-0.075	0.000
00:00:14.548	-0.080	0.000
00:00:14.550	-0.070	0.000
00:00:14.552	-0.095	-0.005
00:00:14.554	-0.105	-0.005
00:00:14.556	-0.115	-0.010
00:00:14.558	-0.125	-0.015
00:00:14.560	-0.115	-0.015
00:00:14.562	-0.115	-0.020
00:00:14.564	-0.100	-0.025
00:00:14.566	-0.090	-0.030
00:00:14.568	-0.120	-0.035
00:00:14.570	-0.150	-0.045
00:00:14.572	-0.155	-0.050
00:00:14.574	-0.170	-0.055
00:00:14.576	-0.160	-0.060
00:00:14.578	-0.165	-0.060
00:00:14.580	-0.160	-0.060
00:00:14.582	-0.135	-0.060
00:00:14.584	-0.130	-0.060
00:00:14.586	-0.125	-0.060
00:00:14.588	-0.140	-0.060
00:00:14.590	-0.150	-0.060
00:00:14.592	-0.165	-0.065
00:00:14.594	-0.170	-0.065
00:00:14.596	-0.180	-0.065
00:00:14.598	-0.180	-0.070
00:00:14.600	-0.155	-0.070
00:00:14.602	-0.150	-0.070
00:00:14.604	-0.165	-0.075
00:00:14.606	-0.155	-0.075
00:00:14.608	-0.160	-0.075
00:00:14.610	-0.160	-0.075
00:00:14.612	-0.165	-0.075
00:00:14.614	-0.185	-0.075
00:00:14.616	-0.170	-0.075
00:00:14.618	-0.185	-0.080
00:00:14.620	-0.165	-0.075
00:00:14.622	-0.145	-0.075
00:00:14.624	-0.140	-0.075
00:00:14.626	-0.130	-0.070
00:00:14.628	-0.145	-0.070
00:00:14.630	-0.170	-0.070
00:00:14.632	-0.195	-0.070
00:00:14.634	-0.195	-0.075
00:00:14.636	-0.200	-0.080
00:00:14.638	-0.205	-0.085
00:00:14.640	-0.175	-0.090
00:00:14.642	-0.165	-0.095
00:00:14.644	-0.160	-0.100
00:00:14.646	-0.160	-0.100
00:00:14.648	-0.170	-0.100
00:00:14.650	-0.175	-0.095
00:00:14.652	-0.185	-0.090
00:00:14.654	-0.195	-0.085
00:00:14.656	-0.205	-0.085
00:00:14.658	-0.215	-0.090
00:00:14.660	-0.205	-0.095
00:00:14.662	-0.190	-0.105
00:00:14.664	-0.200	-0.115
00:00:14.666	-0.200	-0.125
00:00:14.668	-0.195	-0.120
00:00:14.670	-0.190	-0.110
00:00:14.672	-0.170	-0.090
00:00:14.674	-0.125	-0.050
00:00:14.676	-0.065	0.000
00:00:14.678	-0.010	0.065
00:00:14.680	0.075	0.140
00:00:14.682	0.145	0.225
00:00:14.684	0.215	0.310
00:00:14.686	0.320	0.395
00:00:14.688	0.445	0.470
00:00:14.690	0.535	0.535
00:00:14.692	0.550	0.580
00:00:14.694	0.540	0.600
00:00:14.696	0.480	0.590
00:00:14.698	0.430	0.550
00:00:14.700	0.365	0.485
00:00:14.702	0.285	0.395
00:00:14.704	0.195	0.290
00:00:14.706	0.110	0.175
00:00:14.708	-0.025	0.065
00:00:14.710	-0.155	-0.035
00:00:14.712	-0.245	-0.110
00:00:14.714	-0.300	-0.160
00:00:14.716	-0.290	-0.185
00:00:14.718	-0.260	-0.190
00:00:14.720	-0.225	-0.175
00:00:14.722	-0.200	-0.150
00:00:14.724	-0.180	-0.120
00:00:14.726	-0.150	-0.095
00:00:14.728	-0.150	-0.080
00:00:14.730	-0.145	-0.070
00:00:14.732	-0.145	-0.065
00:00:14.734	-0.140	-0.070
00:00:14.736	-0.140	-0.070
00:00:14.738	-0.130	-0.070
00:00:14.740	-0.125	-0.070
00:00:14.742	-0.120	-0.065
00:00:14.744	-0.135	-0.055
00:00:14.746	-0.115	-0.050
00:00:14.748	-0.115	-0.040
00:00:14.750	-0.135	-0.040
00:00:14.752	-0.150	-0.040
00:00:14.754	-0.145	-0.045
00:00:14.756	-0.155	-0.050
00:00:14.758	-0.140	-0.055
00:00:14.760	-0.110	-0.060
00:00:14.762	-0.115	-0.065
00:00:14.764	-0.105	-0.060
00:00:14.766	-0.105	-0.060
00:00:14.768	-0.110	-0.050
00:00:14.770	-0.110	-0.045
00:00:14.772	-0.105	-0.040
00:00:14.774	-0.110	-0.035
00:00:14.776	-0.130	-0.030
00:00:14.778	-0.125	-0.030
00:00:14.780	-0.115	-0.030
00:00:14.782	-0.100	-0.030
00:00:14.784	-0.100	-0.030
00:00:14.786	-0.100	-0.030
00:00:14.788	-0.105	-0.030
00:00:14.790	-0.110	-0.030
00:00:14.792	-0.120	-0.030
00:00:14.794	-0.120	-0.030
00:00:14.796	-0.125	-0.030
00:00:14.798	-0.095	-0.025
00:00:14.800	-0.080	-0.025
00:00:14.802	-0.085	-0.025
00:00:14.804	-0.080	-0.020
00:00:14.806	-0.075	-0.020
00:00:14.808	-0.075	-0.015
00:00:14.810	-0.085	-0.015
00:00:14.812	-0.090	-0.010
00:00:14.814	-0.090	-0.010
00:00:14.816	-0.085	-0.010
00:00:14.818	-0.070	-0.015
00:00:14.820	-0.060	-0.015
00:00:14.822	-0.055	-0.015
00:00:14.824	-0.055	-0.010
00:00:14.826	-0.045	-0.010
00:00:14.828	-0.050	0.000
00:00:14.830	-0.065	0.005
00:00:14.832	-0.055	0.015
00:00:14.834	-0.080	0.020
00:00:14.836	-0.075	0.025
00:00:14.838	-0.050	0.030
00:00:14.840	-0.040	0.030
00:00:14.842	-0.040	0.030
00:00:14.844	-0.035	0.025
00:00:14.846	-0.040	0.025
00:00:14.848	-0.045	0.020
00:00:14.850	-0.045	0.025
00:00:14.852	-0.030	0.030
00:00:14.854	-0.040	0.035
00:00:14.856	-0.020	0.045
00:00:14.858	-0.010	0.050
00:00:14.860	0.000	0.060
00:00:14.862	0.000	0.065
00:00:14.864	0.005	0.065
00:00:14.866	0.005	0.070
00:00:14.868	-0.005	0.065
00:00:14.870	-0.005	0.065
00:00:14.872	0.005	0.065
00:00:14.874	-0.005	0.070
00:00:14.876	0.000	0.075
00:00:14.878	0.025	0.080
00:00:14.880	0.035	0.090
00:00:14.882	0.055	0.100
00:00:14.884	0.070	0.105
00:00:14.886	0.090	0.115
00:00:14.888	0.080	0.120
00:00:14.890	0.070	0.125
00:00:14.892	0.065	0.130
00:00:14.894	0.055	0.130
00:00:14.896	0.070	0.135
00:00:14.898	0.070	0.135
00:00:14.900	0.090	0.140
00:00:14.902	0.110	0.145
00:00:14.904	0.120	0.150
00:00:14.906	0.120	0.155
00:00:14.908	0.115	0.160
00:00:14.910	0.110	0.165
00:00:14.912	0.115	0.175
00:00:14.914	0.095	0.180
00:00:14.916	0.100	0.185
00:00:14.918	0.120	0.190
00:00:14.920	0.115	0.195
00:00:14.922	0.120	0.195
00:00:14.924	0.115	0.190
00:00:14.926	0.095	0.185
00:00:14.928	0.085	0.180
00:00:14.930	0.080	0.170
00:00:14.932	0.070	0.165
00:00:14.934	0.065	0.155
00:00:14.936	0.055	0.150
00:00:14.938	0.055	0.145
00:00:14.940	0.060	0.140
00:00:14.942	0.055	0.135
00:00:14.944	0.050	0.130
00:00:14.946	0.050	0.120
00:00:14.948	0.025	0.110
00:00:14.950	-0.005	0.095
00:00:14.952	-0.020	0.080
00:00:14.954	-0.030	0.065
00:00:14.956	-0.035	0.055
00:00:14.958	-0.030	0.045
00:00:14.960	-0.020	0.040
00:00:14.962	-0.020	0.035
00:00:14.964	-0.020	0.035
00:00:14.966	-0.045	0.035
00:00:14.968	-0.060	0.035
00:00:14.970	-0.070	0.030
00:00:14.972	-0.070	0.025
00:00:14.974	-0.095	0.020
00:00:14.976	-0.085	0.010
00:00:14.978	-0.085	-0.005
00:00:14.980	-0.080	-0.015
00:00:14.982	-0.080	-0.025
00:00:14.984	-0.075	-0.035
00:00:14.986	-0.090	-0.035
00:00:14.988	-0.105	-0.040
00:00:14.990	-0.115	-0.040
00:00:14.992	-0.110	-0.040
00:00:14.994	-0.115	-0.040
00:00:14.996	-0.115	-0.040
00:00:14.998	-0.130	-0.040
00:00:15.000	-0.135	-0.045
00:00:15.002	-0.135	-0.050
00:00:15.004	-0.135	-0.050
00:00:15.006	-0.140	-0.055
00:00:15.008	-0.140	-0.060
00:00:15.010	-0.140	-0.065
00:00:15.012	-0.140	-0.070
00:00:15.014	-0.145	-0.075
00:00:15.016	-0.140	-0.075
00:00:15.018	-0.125	-0.080
00:00:15.020	-0.120	-0.085
00:00:15.022	-0.120	-0.085
00:00:15.024	-0.115	-0.085
00:00:15.026	-0.120	-0.080
00:00:15.028	-0.135	-0.080
00:00:15.030	-0.130	-0.075
00:00:15.032	-0.140	-0.070
00:00:15.034	-0.150	-0.065
00:00:15.036	-0.160	-0.060
00:00:15.038	-0.120	-0.060
00:00:15.040	-0.115	-0.060
00:00:15.042	-0.110	-0.060
00:00:15.044	-0.105	-0.060
00:00:15.046	-0.120	-0.065
00:00:15.048	-0.115	-0.065
00:00:15.050	-0.130	-0.065
00:00:15.052	-0.145	-0.065
00:00:15.054	-0.135	-0.065
00:00:15.056	-0.110	-0.060
00:00:15.058	-0.095	-0.060
00:00:15.060	-0.110	-0.060
00:00:15.062	-0.115	-0.060
00:00:15.064	-0.110	-0.065
00:00:15.066	-0.110	-0.065
00:00:15.068	-0.120	-0.065
00:00:15.070	-0.125	-0.070
00:00:15.072	-0.125	-0.070
00:00:15.074	-0.130	-0.065
00:00:15.076	-0.135	-0.065
00:00:15.078	-0.120	-0.065
00:00:15.080	-0.110	-0.060
00:00:15.082	-0.100	-0.060
00:00:15.084	-0.095	-0.060
00:00:15.086	-0.105	-0.060
00:00:15.088	-0.110	-0.060
00:00:15.090	-0.105	-0.060
00:00:15.092	-0.110	-0.060
00:00:15.094	-0.115	-0.060
00:00:15.096	-0.110	-0.060
00:00:15.098	-0.100	-0.060
00:00:15.100	-0.100	-0.055
00:00:15.102	-0.110	-0.055
00:00:15.104	-0.110	-0.050
00:00:15.106	-0.110	-0.050
00:00:15.108	-0.105	-0.050
00:00:15.110	-0.110	-0.045
00:00:15.112	-0.120	-0.050
00:00:15.114	-0.135	-0.050
00:00:15.116	-0.125	-0.050
00:00:15.118	-0.100	-0.055
00:00:15.120	-0.090	-0.055
00:00:15.122	-0.085	-0.055
00:00:15.124	-0.090	-0.055
00:00:15.126	-0.100	-0.055
00:00:15.128	-0.110	-0.050
00:00:15.130	-0.110	-0.050
00:00:15.132	-0.110	-0.045
00:00:15.134	-0.115	-0.045
00:00:15.136	-0.125	-0.045
00:00:15.138	-0.110	-0.045
00:00:15.140	-0.105	-0.050
00:00:15.142	-0.100	-0.050
00:00:15.144	-0.090	-0.055
00:00:15.146	-0.105	-0.060
00:00:15.148	-0.115	-0.065
00:00:15.150	-0.120	-0.065
00:00:15.152	-0.125	-0.065
00:00:15.154	-0.120	-0.065
00:00:15.156	-0.110	-0.060
00:00:15.158	-0.100	-0.055
00:00:15.160	-0.100	-0.050
00:00:15.162	-0.085	-0.045
00:00:15.164	-0.090	-0.040
00:00:15.166	-0.100	-0.040
00:00:15.168	-0.115	-0.045
00:00:15.170	-0.115	-0.050
00:00:15.172	-0.135	-0.055
00:00:15.174	-0.125	-0.060
00:00:15.176	-0.110	-0.070
00:00:15.178	-0.100	-0.070
00:00:15.180	-0.095	-0.075
00:00:15.182	-0.090	-0.070
00:00:15.184	-0.090	-0.065
00:00:15.186	-0.070	-0.060
00:00:15.188	-0.065	-0.045
00:00:15.190	-0.065	-0.035
00:00:15.192	-0.070	-0.020
00:00:15.194	-0.055	-0.010
00:00:15.196	-0.030	0.000
00:00:15.198	-0.035	0.010
00:00:15.200	-0.020	0.020
00:00:15.202	-0.010	0.025
00:00:15.204	-0.010	0.030
00:00:15.206	-0.015	0.030
00:00:15.208	-0.020	0.035
00:00:15.210	-0.025	0.035
00:00:15.212	-0.035	0.035
00:00:15.214	-0.020	0.040
00:00:15.216	-0.015	0.040
00:00:15.218	-0.010	0.040
00:00:15.220	-0.010	0.045
00:00:15.222	0.010	0.045
00:00:15.224	0.020	0.045
00:00:15.226	0.015	0.040
00:00:15.228	-0.010	0.040
00:00:15.230	-0.025	0.040
00:00:15.232	-0.020	0.040
00:00:15.234	-0.015	0.040
00:00:15.236	0.005	0.040
00:00:15.238	0.005	0.040
00:00:15.240	0.010	0.040
00:00:15.242	0.020	0.045
00:00:15.244	0.025	0.050
00:00:15.246	0.010	0.050
00:00:15.248	-0.005	0.055
00:00:15.250	-0.010	0.055
00:00:15.252	-0.020	0.055
00:00:15.254	-0.020	0.055
00:00:15.256	0.005	0.050
00:00:15.258	0.015	0.050
00:00:15.260	0.010	0.045
00:00:15.262	0.025	0.040
00:00:15.264	0.030	0.040
00:00:15.266	0.005	0.035
00:00:15.268	0.000	0.035
00:00:15.270	0.005	0.035
00:00:15.272	0.005	0.040
00:00:15.274	0.015	0.045
00:00:15.276	0.025	0.050
00:00:15.278	0.020	0.055
00:00:15.280	0.035	0.065
00:00:15.282	0.045	0.070
00:00:15.284	0.040	0.075
00:00:15.286	0.015	0.075
00:00:15.288	0.000	0.075
00:00:15.290	-0.005	0.075
00:00:15.292	-0.015	0.075
00:00:15.294	-0.005	0.070
00:00:15.296	0.035	0.070
00:00:15.298	0.040	0.070
00:00:15.300	0.055	0.070
00:00:15.302	0.070	0.070
00:00:15.304	0.085	0.075
00:00:15.306	0.055	0.080
00:00:15.308	0.045	0.085
00:00:15.310	0.040	0.090
00:00:15.312	0.020	0.095
00:00:15.314	0.015	0.095
00:00:15.316	0.040	0.100
00:00:15.318	0.060	0.100
00:00:15.320	0.060	0.100
00:00:15.322	0.065	0.100
00:00:15.324	0.065	0.100
00:00:15.326	0.055	0.100
00:00:15.328	0.055	0.100
00:00:15.330	0.040	0.095
00:00:15.332	0.030	0.095
00:00:15.334	0.025	0.090
00:00:15.336	0.025	0.085
00:00:15.338	0.020	0.080
00:00:15.340	0.025	0.070
00:00:15.342	0.020	0.060
00:00:15.344	0.000	0.050
00:00:15.346	-0.020	0.040
00:00:15.348	-0.030	0.030
00:00:15.350	-0.040	0.020
00:00:15.352	-0.040	0.015
00:00:15.354	-0.030	0.015
00:00:15.356	-0.010	0.010
00:00:15.358	-0.005	0.010
00:00:15.360	0.010	0.015
00:00:15.362	0.005	0.015
00:00:15.364	0.005	0.020
00:00:15.366	-0.010	0.020
00:00:15.368	-0.030	0.020
00:00:15.370	-0.040	0.020
00:00:15.372	-0.045	0.020
00:00:15.374	-0.045	0.015
00:00:15.376	-0.045	0.015
00:00:15.378	-0.045	0.015
00:00:15.380	-0.015	0.010
00:00:15.382	-0.005	0.005
00:00:15.384	-0.030	0.000
00:00:15.386	-0.045	-0.005
00:00:15.388	-0.060	-0.010
00:00:15.390	-0.065	-0.015
00:00:15.392	-0.060	-0.020
00:00:15.394	-0.055	-0.020
00:00:15.396	-0.045	-0.025
00:00:15.398	-0.030	-0.025
00:00:15.400	-0.035	-0.030
00:00:15.402	-0.035	-0.030
00:00:15.404	-0.045	-0.030
00:00:15.406	-0.045	-0.025
00:00:15.408	-0.050	-0.025
00:00:15.410	-0.050	-0.025
00:00:15.412	-0.060	-0.025
00:00:15.414	-0.065	-0.020
00:00:15.416	-0.040	-0.020
00:00:15.418	-0.045	-0.020
00:00:15.420	-0.040	-0.020
00:00:15.422	-0.030	-0.020
00:00:15.424	-0.050	-0.020
00:00:15.426	-0.060	-0.020
00:00:15.428	-0.075	-0.020
00:00:15.430	-0.095	-0.020
00:00:15.432	-0.095	-0.025
00:00:15.434	-0.080	-0.030
00:00:15.436	-0.080	-0.040
00:00:15.438	-0.075	-0.045
00:00:15.440	-0.090	-0.055
00:00:15.442	-0.095	-0.060
00:00:15.444	-0.095	-0.055
00:00:15.446	-0.075	-0.045
00:00:15.448	-0.035	-0.020
00:00:15.450	0.010	0.015
00:00:15.452	0.065	0.070
00:00:15.454	0.105	0.135
00:00:15.456	0.190	0.215
00:00:15.458	0.260	0.300
00:00:15.460	0.380	0.390
00:00:15.462	0.480	0.480
00:00:15.464	0.595	0.555
00:00:15.466	0.635	0.615
00:00:15.468	0.630	0.645
00:00:15.470	0.615	0.650
00:00:15.472	0.560	0.620
00:00:15.474	0.510	0.565
00:00:15.476	0.430	0.480
00:00:15.478	0.335	0.375
00:00:15.480	0.250	0.260
00:00:15.482	0.125	0.145
00:00:15.484	-0.025	0.045
00:00:15.486	-0.135	-0.040
00:00:15.488	-0.200	-0.105
00:00:15.490	-0.220	-0.140
00:00:15.492	-0.195	-0.155
00:00:15.494	-0.165	-0.150
00:00:15.496	-0.125	-0.130
00:00:15.498	-0.095	-0.110
00:00:15.500	-0.070	-0.085
00:00:15.502	-0.055	-0.065
00:00:15.504	-0.050	-0.055
00:00:15.506	-0.050	-0.045
00:00:15.508	-0.070	-0.045
00:00:15.510	-0.075	-0.045
00:00:15.512	-0.080	-0.045
00:00:15.514	-0.075	-0.045
00:00:15.516	-0.070	-0.040
00:00:15.518	-0.055	-0.035
00:00:15.520	-0.055	-0.030
00:00:15.522	-0.060	-0.025
00:00:15.524	-0.070	-0.025
00:00:15.526	-0.070	-0.025
00:00:15.528	-0.060	-0.030
00:00:15.530	-0.075	-0.035
00:00:15.532	-0.080	-0.040
00:00:15.534	-0.060	-0.045
00:00:15.536	-0.050	-0.045
00:00:15.538	-0.055	-0.045
00:00:15.540	-0.045	-0.040
00:00:15.542	-0.050	-0.035
00:00:15.544	-0.070	-0.030
00:00:15.546	-0.085	-0.025
00:00:15.548	-0.080	-0.025
00:00:15.550	-0.085	-0.025
00:00:15.552	-0.080	-0.030
00:00:15.554	-0.065	-0.035
00:00:15.556	-0.035	-0.040
00:00:15.558	-0.040	-0.040
00:00:15.560	-0.040	-0.040
00:00:15.562	-0.055	-0.040
00:00:15.564	-0.065	-0.035
00:00:15.566	-0.055	-0.025
00:00:15.568	-0.070	-0.020
00:00:15.570	-0.080	-0.010
00:00:15.572	-0.065	-0.005
00:00:15.574	-0.050	-0.005
00:00:15.576	-0.040	-0.005
00:00:15.578	-0.040	-0.005
00:00:15.580	-0.015	-0.005
00:00:15.582	-0.020	-0.010
00:00:15.584	-0.035	-0.010
00:00:15.586	-0.045	-0.010
00:00:15.588	-0.050	-0.010
00:00:15.590	-0.050	-0.010
00:00:15.592	-0.035	-0.005
00:00:15.594	-0.035	-0.005
00:00:15.596	-0.030	0.000
00:00:15.598	-0.035	0.005
00:00:15.600	-0.010	0.005
00:00:15.602	-0.020	0.005
00:00:15.604	-0.040	0.005
00:00:15.606	-0.045	0.000
00:00:15.608	-0.050	0.000
00:00:15.610	-0.050	-0.005
00:00:15.612	-0.040	-0.005
00:00:15.614	-0.025	-0.005
00:00:15.616	-0.005	-0.005
00:00:15.618	-0.005	-0.005
00:00:15.620	0.005	0.000
00:00:15.622	-0.005	0.005
00:00:15.624	-0.005	0.005
00:00:15.626	-0.015	0.005
00:00:15.628	-0.020	0.010
00:00:15.630	-0.015	0.010
00:00:15.632	-0.005	0.010
00:00:15.634	0.005	0.015
00:00:15.636	0.010	0.020
00:00:15.638	0.030	0.025
00:00:15.640	0.045	0.035
00:00:15.642	0.045	0.045
00:00:15.644	0.040	0.055
00:00:15.646	0.030	0.065
00:00:15.648	0.045	0.075
00:00:15.650	0.035	0.085
00:00:15.652	0.055	0.090
00:00:15.654	0.075	0.100
00:00:15.656	0.085	0.105
00:00:15.658	0.090	0.110
00:00:15.660	0.105	0.115
00:00:15.662	0.100	0.120
00:00:15.664	0.085	0.125
00:00:15.666	0.085	0.130
00:00:15.668	0.095	0.135
00:00:15.670	0.095	0.135
00:00:15.672	0.105	0.140
00:00:15.674	0.120	0.140
00:00:15.676	0.125	0.140
00:00:15.678	0.130	0.140
00:00:15.680	0.145	0.145
00:00:15.682	0.145	0.145
00:00:15.684	0.140	0.150
00:00:15.686	0.135	0.155
00:00:15.688	0.130	0.160
00:00:15.690	0.120	0.165
00:00:15.692	0.130	0.170
00:00:15.694	0.135	0.170
00:00:15.696	0.125	0.175
00:00:15.698	0.125	0.175
00:00:15.700	0.120	0.170
00:00:15.702	0.115	0.170
00:00:15.704	0.110	0.165
00:00:15.706	0.095	0.160
00:00:15.708	0.090	0.155
00:00:15.710	0.085	0.145
00:00:15.712	0.095	0.140
00:00:15.714	0.080	0.135
00:00:15.716	0.080	0.125
00:00:15.718	0.075	0.120
00:00:15.720	0.070	0.110
00:00:15.722	0.040	0.095
00:00:15.724	0.025	0.085
00:00:15.726	0.000	0.075
00:00:15.728	-0.005	0.060
00:00:15.730	-0.010	0.050
00:00:15.732	-0.015	0.040
00:00:15.734	-0.025	0.035
00:00:15.736	-0.020	0.025
00:00:15.738	-0.020	0.020
00:00:15.740	-0.020	0.015
00:00:15.742	-0.045	0.010
00:00:15.744	-0.070	0.005
00:00:15.746	-0.070	-0.005
00:00:15.748	-0.085	-0.015
00:00:15.750	-0.085	-0.020
00:00:15.752	-0.090	-0.030
00:00:15.754	-0.085	-0.035
00:00:15.756	-0.080	-0.040
00:00:15.758	-0.070	-0.045
00:00:15.760	-0.075	-0.050
00:00:15.762	-0.090	-0.050
00:00:15.764	-0.115	-0.055
00:00:15.766	-0.135	-0.055
00:00:15.768	-0.140	-0.060
00:00:15.770	-0.150	-0.070
00:00:15.772	-0.130	-0.075
00:00:15.774	-0.115	-0.085
00:00:15.776	-0.125	-0.090
00:00:15.778	-0.105	-0.095
00:00:15.780	-0.110	-0.100
00:00:15.782	-0.115	-0.100
00:00:15.784	-0.125	-0.100
00:00:15.786	-0.130	-0.095
00:00:15.788	-0.145	-0.095
00:00:15.790	-0.145	-0.090
00:00:15.792	-0.140	-0.090
00:00:15.794	-0.135	-0.090
00:00:15.796	-0.120	-0.090
00:00:15.798	-0.115	-0.090
00:00:15.800	-0.110	-0.090
00:00:15.802	-0.110	-0.095
00:00:15.804	-0.130	-0.095
00:00:15.806	-0.130	-0.090
00:00:15.808	-0.135	-0.090
00:00:15.810	-0.140	-0.085
00:00:15.812	-0.125	-0.085
00:00:15.814	-0.115	-0.080
00:00:15.816	-0.115	-0.080
00:00:15.818	-0.110	-0.080
00:00:15.820	-0.125	-0.080
00:00:15.822	-0.135	-0.085
00:00:15.824	-0.140	-0.085
00:00:15.826	-0.125	-0.085
00:00:15.828	-0.135	-0.080
00:00:15.830	-0.135	-0.080
00:00:15.832	-0.120	-0.080
00:00:15.834	-0.105	-0.080
00:00:15.836	-0.110	-0.080
00:00:15.838	-0.110	-0.080
00:00:15.840	-0.115	-0.080
00:00:15.842	-0.125	-0.085
00:00:15.844	-0.130	-0.085
00:00:15.846	-0.135	-0.085
00:00:15.848	-0.135	-0.085
00:00:15.850	-0.125	-0.080
00:00:15.852	-0.120	-0.075
00:00:15.854	-0.100	-0.070
00:00:15.856	-0.105	-0.065
00:00:15.858	-0.100	-0.060
00:00:15.860	-0.110	-0.055
00:00:15.862	-0.120	-0.055
00:00:15.864	-0.135	-0.055
00:00:15.866	-0.130	-0.055
00:00:15.868	-0.125	-0.060
00:00:15.870	-0.125	-0.065
00:00:15.872	-0.120	-0.065
00:00:15.874	-0.100	-0.070
00:00:15.876	-0.110	-0.070
00:00:15.878	-0.100	-0.070
00:00:15.880	-0.105	-0.065
00:00:15.882	-0.130	-0.065
00:00:15.884	-0.130	-0.060
00:00:15.886	-0.135	-0.060
00:00:15.888	-0.135	-0.055
00:00:15.890	-0.120	-0.055
00:00:15.892	-0.110	-0.055
00:00:15.894	-0.105	-0.060
00:00:15.896	-0.105	-0.060
00:00:15.898	-0.100	-0.065
00:00:15.900	-0.115	-0.065
00:00:15.902	-0.120	-0.070
00:00:15.904	-0.130	-0.075
00:00:15.906	-0.135	-0.075
00:00:15.908	-0.140	-0.075
00:00:15.910	-0.130	-0.075
00:00:15.912	-0.125	-0.075
00:00:15.914	-0.120	-0.075
00:00:15.916	-0.130	-0.075
00:00:15.918	-0.115	-0.075
00:00:15.920	-0.130	-0.075
00:00:15.922	-0.145	-0.075
00:00:15.924	-0.135	-0.075
00:00:15.926	-0.150	-0.075
00:00:15.928	-0.155	-0.080
00:00:15.930	-0.150	-0.080
00:00:15.932	-0.135	-0.080
00:00:15.934	-0.125	-0.080
00:00:15.936	-0.115	-0.080
00:00:15.938	-0.105	-0.080
00:00:15.940	-0.120	-0.080
00:00:15.942	-0.135	-0.080
00:00:15.944	-0.150	-0.080
00:00:15.946	-0.160	-0.080
00:00:15.948	-0.160	-0.080
00:00:15.950	-0.150	-0.080
00:00:15.952	-0.140	-0.085
00:00:15.954	-0.140	-0.085
00:00:15.956	-0.130	-0.085
00:00:15.958	-0.120	-0.090
00:00:15.960	-0.125	-0.090
00:00:15.962	-0.135	-0.090
00:00:15.964	-0.135	-0.085
00:00:15.966	-0.145	-0.085
00:00:15.968	-0.165	-0.080
00:00:15.970	-0.150	-0.080
00:00:15.972	-0.145	-0.075
00:00:15.974	-0.145	-0.075
00:00:15.976	-0.135	-0.075
00:00:15.978	-0.135	-0.075
00:00:15.980	-0.150	-0.080
00:00:15.982	-0.155	-0.085
00:00:15.984	-0.155	-0.085
00:00:15.986	-0.165	-0.090
00:00:15.988	-0.170	-0.090
00:00:15.990	-0.165	-0.095
00:00:15.992	-0.150	-0.095
00:00:15.994	-0.140	-0.090
00:00:15.996	-0.140	-0.090
00:00:15.998	-0.140	-0.090
00:00:16.000	-0.150	-0.090
00:00:16.002	-0.160	-0.095
00:00:16.004	-0.175	-0.095
00:00:16.006	-0.175	-0.100
00:00:16.008	-0.180	-0.100
00:00:16.010	-0.165	-0.100
00:00:16.012	-0.155	-0.100
00:00:16.014	-0.150	-0.095
00:00:16.016	-0.130	-0.095
00:00:16.018	-0.130	-0.085
00:00:16.020	-0.150	-0.080
00:00:16.022	-0.150	-0.080
00:00:16.024	-0.165	-0.075
00:00:16.026	-0.170	-0.080
00:00:16.028	-0.170	-0.080
00:00:16.030	-0.160	-0.085
00:00:16.032	-0.145	-0.090
00:00:16.034	-0.150	-0.095
00:00:16.036	-0.145	-0.100
00:00:16.038	-0.130	-0.100
00:00:16.040	-0.140	-0.100
00:00:16.042	-0.155	-0.095
00:00:16.044	-0.155	-0.095
00:00:16.046	-0.160	-0.095
00:00:16.048	-0.175	-0.090
00:00:16.050	-0.165	-0.090
00:00:16.052	-0.150	-0.095
00:00:16.054	-0.155	-0.095
00:00:16.056	-0.150	-0.095
00:00:16.058	-0.140	-0.095
00:00:16.060	-0.145	-0.095
00:00:16.062	-0.155	-0.090
00:00:16.064	-0.145	-0.085
00:00:16.066	-0.160	-0.080
00:00:16.068	-0.150	-0.075
00:00:16.070	-0.135	-0.065
00:00:16.072	-0.130	-0.065
00:00:16.074	-0.120	-0.060
00:00:16.076	-0.120	-0.060
00:00:16.078	-0.120	-0.060
00:00:16.080	-0.130	-0.065
00:00:16.082	-0.150	-0.065
00:00:16.084	-0.155	-0.070
00:00:16.086	-0.150	-0.070
00:00:16.088	-0.145	-0.070
00:00:16.090	-0.135	-0.070
00:00:16.092	-0.115	-0.070
00:00:16.094	-0.120	-0.070
00:00:16.096	-0.120	-0.065
00:00:16.098	-0.110	-0.060
00:00:16.100	-0.110	-0.055
00:00:16.102	-0.115	-0.050
00:00:16.104	-0.110	-0.045
00:00:16.106	-0.115	-0.035
00:00:16.108	-0.105	-0.030
00:00:16.110	-0.090	-0.025
00:00:16.112	-0.090	-0.020
00:00:16.114	-0.090	-0.020
00:00:16.116	-0.080	-0.020
00:00:16.118	-0.085	-0.020
00:00:16.120	-0.095	-0.025
00:00:16.122	-0.110	-0.025
00:00:16.124	-0.105	-0.025
00:00:16.126	-0.105	-0.025
00:00:16.128	-0.090	-0.020
00:00:16.130	-0.090	-0.015
00:00:16.132	-0.085	-0.015
00:00:16.134	-0.085	-0.010
00:00:16.136	-0.095	-0.010
00:00:16.138	-0.115	-0.010
00:00:16.140	-0.125	-0.015
00:00:16.142	-0.140	-0.025
00:00:16.144	-0.140	-0.035
00:00:16.146	-0.155	-0.045
00:00:16.148	-0.155	-0.055
00:00:16.150	-0.155	-0.065
00:00:16.152	-0.150	-0.070
00:00:16.154	-0.155	-0.075
00:00:16.156	-0.145	-0.080
00:00:16.158	-0.140	-0.075
00:00:16.160	-0.140	-0.075
00:00:16.162	-0.140	-0.070
00:00:16.164	-0.155	-0.070
00:00:16.166	-0.170	-0.070
00:00:16.168	-0.175	-0.065
00:00:16.170	-0.150	-0.070
00:00:16.172	-0.150	-0.070
00:00:16.174	-0.150	-0.070
00:00:16.176	-0.135	-0.070
00:00:16.178	-0.150	-0.075
00:00:16.180	-0.160	-0.075
00:00:16.182	-0.175	-0.075
00:00:16.184	-0.185	-0.075
00:00:16.186	-0.195	-0.080
00:00:16.188	-0.185	-0.080
00:00:16.190	-0.185	-0.085
00:00:16.192	-0.165	-0.085
00:00:16.194	-0.160	-0.090
00:00:16.196	-0.165	-0.090
00:00:16.198	-0.175	-0.090
00:00:16.200	-0.175	-0.090
00:00:16.202	-0.190	-0.090
00:00:16.204	-0.185	-0.085
00:00:16.206	-0.180	-0.080
00:00:16.208	-0.175	-0.080
00:00:16.210	-0.160	-0.075
00:00:16.212	-0.160	-0.075
00:00:16.214	-0.145	-0.080
00:00:16.216	-0.135	-0.085
00:00:16.218	-0.160	-0.090
00:00:16.220	-0.175	-0.095
00:00:16.222	-0.195	-0.100
00:00:16.224	-0.205	-0.105
00:00:16.226	-0.200	-0.110
00:00:16.228	-0.195	-0.110
00:00:16.230	-0.185	-0.110
00:00:16.232	-0.185	-0.110
00:00:16.234	-0.185	-0.110
00:00:16.236	-0.175	-0.110
00:00:16.238	-0.190	-0.110
00:00:16.240	-0.215	-0.115
00:00:16.242	-0.220	-0.120
00:00:16.244	-0.235	-0.120
00:00:16.246	-0.230	-0.115
00:00:16.248	-0.195	-0.100
00:00:16.250	-0.140	-0.075
00:00:16.252	-0.075	-0.035
00:00:16.254	-0.015	0.020
00:00:16.256	0.035	0.085
00:00:16.258	0.095	0.165
00:00:16.260	0.145	0.250
00:00:16.262	0.225	0.335
00:00:16.264	0.320	0.420
00:00:16.266	0.430	0.500
00:00:16.268	0.545	0.560
00:00:16.270	0.580	0.605
00:00:16.272	0.575	0.620
00:00:16.274	0.535	0.610
00:00:16.276	0.465	0.570
00:00:16.278	0.380	0.500
00:00:16.280	0.285	0.410
00:00:16.282	0.200	0.300
00:00:16.284	0.075	0.190
00:00:16.286	-0.055	0.080
00:00:16.288	-0.165	-0.020
00:00:16.290	-0.240	-0.095
00:00:16.292	-0.260	-0.145
00:00:16.294	-0.250	-0.170
00:00:16.296	-0.215	-0.170
00:00:16.298	-0.210	-0.155
00:00:16.300	-0.190	-0.130
00:00:16.302	-0.180	-0.100
00:00:16.304	-0.170	-0.075
00:00:16.306	-0.175	-0.055
00:00:16.308	-0.155	-0.045
00:00:16.310	-0.125	-0.040
00:00:16.312	-0.115	-0.045
00:00:16.314	-0.135	-0.050
00:00:16.316	-0.140	-0.055
00:00:16.318	-0.145	-0.055
00:00:16.320	-0.155	-0.055
00:00:16.322	-0.150	-0.055
00:00:16.324	-0.160	-0.050
00:00:16.326	-0.165	-0.050
00:00:16.328	-0.150	-0.050
00:00:16.330	-0.140	-0.050
00:00:16.332	-0.125	-0.055
00:00:16.334	-0.125	-0.060
00:00:16.336	-0.130	-0.060
00:00:16.338	-0.130	-0.060
00:00:16.340	-0.135	-0.055
00:00:16.342	-0.150	-0.045
00:00:16.344	-0.145	-0.035
00:00:16.346	-0.155	-0.025
00:00:16.348	-0.135	-0.020
00:00:16.350	-0.125	-0.020
00:00:16.352	-0.125	-0.020
00:00:16.354	-0.110	-0.025
00:00:16.356	-0.125	-0.030
00:00:16.358	-0.125	-0.035
00:00:16.360	-0.130	-0.040
00:00:16.362	-0.130	-0.040
00:00:16.364	-0.120	-0.035
00:00:16.366	-0.125	-0.030
00:00:16.368	-0.110	-0.020
00:00:16.370	-0.100	-0.010
00:00:16.372	-0.105	0.000
00:00:16.374	-0.095	0.005
00:00:16.376	-0.105	0.005
00:00:16.378	-0.110	0.005
00:00:16.380	-0.120	0.000
00:00:16.382	-0.115	0.000
00:00:16.384	-0.125	-0.005
00:00:16.386	-0.120	-0.010
00:00:16.388	-0.110	-0.010
00:00:16.390	-0.105	-0.010
00:00:16.392	-0.085	-0.010
00:00:16.394	-0.080	-0.010
00:00:16.396	-0.085	-0.005
00:00:16.398	-0.095	-0.005
00:00:16.400	-0.105	-0.005
00:00:16.402	-0.105	-0.005
00:00:16.404	-0.100	0.000
00:00:16.406	-0.100	0.000
00:00:16.408	-0.080	0.005
00:00:16.410	-0.080	0.005
00:00:16.412	-0.070	0.010
00:00:16.414	-0.065	0.015
00:00:16.416	-0.055	0.015
00:00:16.418	-0.065	0.015
00:00:16.420	-0.085	0.020
00:00:16.422	-0.090	0.020
00:00:16.424	-0.090	0.020
00:00:16.426	-0.080	0.020
00:00:16.428	-0.060	0.020
00:00:16.430	-0.035	0.025
00:00:16.432	-0.035	0.030
00:00:16.434	-0.030	0.035
00:00:16.436	-0.030	0.040
00:00:16.438	-0.045	0.045
00:00:16.440	-0.040	0.050
00:00:16.442	-0.045	0.055
00:00:16.444	-0.050	0.060
00:00:16.446	-0.035	0.060
00:00:16.448	-0.025	0.065
00:00:16.450	-0.015	0.065
00:00:16.452	0.010	0.070
00:00:16.454	0.015	0.080
00:00:16.456	0.020	0.085
00:00:16.458	0.015	0.095
00:00:16.460	0.005	0.110
00:00:16.462	0.015	0.120
00:00:16.464	0.020	0.135
00:00:16.466	0.015	0.145
00:00:16.468	0.060	0.155
00:00:16.470	0.050	0.160
00:00:16.472	0.070	0.165
00:00:16.474	0.070	0.165
00:00:16.476	0.070	0.165
00:00:16.478	0.050	0.165
00:00:16.480	0.050	0.165
00:00:16.482	0.075	0.170
00:00:16.484	0.075	0.175
00:00:16.486	0.090	0.180
00:00:16.488	0.090	0.185
00:00:16.490	0.100	0.195
00:00:16.492	0.095	0.200
00:00:16.494	0.115	0.205
00:00:16.496	0.105	0.210
00:00:16.498	0.100	0.210
00:00:16.500	0.080	0.210
00:00:16.502	0.090	0.205
00:00:16.504	0.075	0.200
00:00:16.506	0.080	0.200
00:00:16.508	0.075	0.200
00:00:16.510	0.085	0.195
00:00:16.512	0.085	0.195
00:00:16.514	0.080	0.190
00:00:16.516	0.065	0.185
00:00:16.518	0.050	0.180
00:00:16.520	0.030	0.170
00:00:16.522	0.010	0.160
00:00:16.524	0.005	0.145
00:00:16.526	-0.005	0.135
00:00:16.528	0.005	0.125
00:00:16.530	-0.005	0.115
00:00:16.532	-0.005	0.105
00:00:16.534	-0.010	0.100
00:00:16.536	-0.030	0.095
00:00:16.538	-0.045	0.085
00:00:16.540	-0.060	0.080
00:00:16.542	-0.075	0.070
00:00:16.544	-0.090	0.060
00:00:16.546	-0.085	0.050
00:00:16.548	-0.085	0.040
00:00:16.550	-0.080	0.030
00:00:16.552	-0.085	0.025
00:00:16.554	-0.080	0.020
00:00:16.556	-0.090	0.015
00:00:16.558	-0.105	0.015
00:00:16.560	-0.115	0.010
00:00:16.562	-0.130	0.010
00:00:16.564	-0.150	0.005
00:00:16.566	-0.140	0.000
00:00:16.568	-0.130	-0.010
00:00:16.570	-0.120	-0.015
00:00:16.572	-0.105	-0.020
00:00:16.574	-0.105	-0.020
00:00:16.576	-0.120	-0.025
00:00:16.578	-0.125	-0.025
00:00:16.580	-0.135	-0.020
00:00:16.582	-0.145	-0.020
00:00:16.584	-0.150	-0.020
00:00:16.586	-0.150	-0.020
00:00:16.588	-0.135	-0.020
00:00:16.590	-0.130	-0.025
00:00:16.592	-0.125	-0.025
00:00:16.594	-0.125	-0.025
00:00:16.596	-0.135	-0.025
00:00:16.598	-0.150	-0.025
00:00:16.600	-0.155	-0.025
00:00:16.602	-0.160	-0.025
00:00:16.604	-0.160	-0.025
00:00:16.606	-0.135	-0.020
00:00:16.608	-0.130	-0.020
00:00:16.610	-0.130	-0.020
00:00:16.612	-0.130	-0.020
00:00:16.614	-0.140	-0.020
00:00:16.616	-0.145	-0.020
00:00:16.618	-0.150	-0.020
00:00:16.620	-0.150	-0.020
00:00:16.622	-0.155	-0.020
00:00:16.624	-0.155	-0.025
00:00:16.626	-0.140	-0.025
00:00:16.628	-0.140	-0.030
00:00:16.630	-0.130	-0.040
00:00:16.632	-0.135	-0.045
00:00:16.634	-0.135	-0.045
00:00:16.636	-0.140	-0.050
00:00:16.638	-0.135	-0.045
00:00:16.640	-0.135	-0.040
00:00:16.642	-0.155	-0.035
00:00:16.644	-0.145	-0.025
00:00:16.646	-0.125	-0.015
00:00:16.648	-0.125	-0.005
00:00:16.650	-0.125	0.000
00:00:16.652	-0.105	0.000
00:00:16.654	-0.115	0.000
00:00:16.656	-0.125	-0.005
00:00:16.658	-0.120	-0.010
00:00:16.660	-0.130	-0.015
00:00:16.662	-0.135	-0.020
00:00:16.664	-0.140	-0.025
00:00:16.666	-0.120	-0.020
00:00:16.668	-0.105	-0.015
00:00:16.670	-0.105	-0.010
00:00:16.672	-0.095	0.000
00:00:16.674	-0.105	0.005
00:00:16.676	-0.120	0.010
00:00:16.678	-0.135	0.015
00:00:16.680	-0.145	0.015
00:00:16.682	-0.150	0.010
00:00:16.684	-0.140	0.005
00:00:16.686	-0.125	0.000
00:00:16.688	-0.120	-0.010
00:00:16.690	-0.115	-0.020
00:00:16.692	-0.105	-0.025
00:00:16.694	-0.120	-0.030
00:00:16.696	-0.125	-0.035
00:00:16.698	-0.130	-0.035
00:00:16.700	-0.140	-0.035
00:00:16.702	-0.145	-0.035
00:00:16.704	-0.130	-0.035
00:00:16.706	-0.115	-0.030
00:00:16.708	-0.115	-0.025
00:00:16.710	-0.120	-0.020
00:00:16.712	-0.110	-0.020
00:00:16.714	-0.120	-0.015
00:00:16.716	-0.115	-0.015
00:00:16.718	-0.130	-0.010
00:00:16.720	-0.140	-0.010
00:00:16.722	-0.150	-0.015
00:00:16.724	-0.140	-0.015
00:00:16.726	-0.125	-0.020
00:00:16.728	-0.125	-0.025
00:00:16.730	-0.110	-0.025
00:00:16.732	-0.110	-0.030
00:00:16.734	-0.115	-0.030
00:00:16.736	-0.125	-0.035
00:00:16.738	-0.130	-0.035
00:00:16.740	-0.145	-0.035
00:00:16.742	-0.155	-0.035
00:00:16.744	-0.145	-0.035
00:00:16.746	-0.135	-0.035
00:00:16.748	-0.135	-0.035
00:00:16.750	-0.125	-0.035
00:00:16.752	-0.115	-0.035
00:00:16.754	-0.120	-0.035
00:00:16.756	-0.130	-0.040
00:00:16.758	-0.140	-0.040
00:00:16.760	-0.145	-0.040
00:00:16.762	-0.155	-0.040
00:00:16.764	-0.150	-0.040
00:00:16.766	-0.145	-0.040
00:00:16.768	-0.135	-0.040
00:00:16.770	-0.130	-0.040
00:00:16.772	-0.120	-0.040
00:00:16.774	-0.135	-0.040
00:00:16.776	-0.150	-0.040
00:00:16.778	-0.145	-0.040
00:00:16.780	-0.140	-0.040
00:00:16.782	-0.155	-0.040
00:00:16.784	-0.140	-0.045
00:00:16.786	-0.125	-0.045
00:00:16.788	-0.120	-0.045
00:00:16.790	-0.120	-0.045
00:00:16.792	-0.120	-0.045
00:00:16.794	-0.135	-0.045
00:00:16.796	-0.150	-0.040
00:00:16.798	-0.150	-0.040
00:00:16.800	-0.145	-0.040
00:00:16.802	-0.160	-0.040
00:00:16.804	-0.155	-0.045
00:00:16.806	-0.150	-0.045
00:00:16.808	-0.140	-0.040
00:00:16.810	-0.140	-0.040
00:00:16.812	-0.125	-0.040
00:00:16.814	-0.125	-0.040
00:00:16.816	-0.130	-0.040
00:00:16.818	-0.140	-0.035
00:00:16.820	-0.150	-0.035
00:00:16.822	-0.150	-0.035
00:00:16.824	-0.150	-0.035
00:00:16.826	-0.145	-0.035
00:00:16.828	-0.140	-0.030
00:00:16.830	-0.130	-0.030
00:00:16.832	-0.125	-0.030
00:00:16.834	-0.130	-0.030
00:00:16.836	-0.145	-0.030
00:00:16.838	-0.145	-0.030
00:00:16.840	-0.155	-0.035
00:00:16.842	-0.170	-0.035
00:00:16.844	-0.150	-0.035
00:00:16.846	-0.140	-0.035
00:00:16.848	-0.135	-0.035
00:00:16.850	-0.125	-0.035
00:00:16.852	-0.125	-0.035
00:00:16.854	-0.145	-0.040
00:00:16.856	-0.135	-0.040
00:00:16.858	-0.155	-0.040
00:00:16.860	-0.155	-0.045
00:00:16.862	-0.170	-0.050
00:00:16.864	-0.155	-0.050
00:00:16.866	-0.135	-0.055
00:00:16.868	-0.120	-0.060
00:00:16.870	-0.125	-0.060
00:00:16.872	-0.115	-0.060
00:00:16.874	-0.135	-0.055
00:00:16.876	-0.155	-0.055
00:00:16.878	-0.155	-0.050
00:00:16.880	-0.155	-0.045
00:00:16.882	-0.155	-0.040
00:00:16.884	-0.135	-0.035
00:00:16.886	-0.130	-0.030
00:00:16.888	-0.110	-0.030
00:00:16.890	-0.090	-0.025
00:00:16.892	-0.085	-0.020
00:00:16.894	-0.100	-0.020
00:00:16.896	-0.130	-0.015
00:00:16.898	-0.135	-0.015
00:00:16.900	-0.125	-0.015
00:00:16.902	-0.125	-0.015
00:00:16.904	-0.110	-0.015
00:00:16.906	-0.105	-0.015
00:00:16.908	-0.105	-0.015
00:00:16.910	-0.105	-0.015
00:00:16.912	-0.115	-0.015
00:00:16.914	-0.115	-0.020
00:00:16.916	-0.120	-0.020
00:00:16.918	-0.110	-0.020
00:00:16.920	-0.105	-0.020
00:00:16.922	-0.095	-0.020
00:00:16.924	-0.080	-0.015
00:00:16.926	-0.065	-0.010
00:00:16.928	-0.060	-0.005
00:00:16.930	-0.065	0.000
00:00:16.932	-0.065	0.005
00:00:16.934	-0.070	0.010
00:00:16.936	-0.075	0.015
00:00:16.938	-0.080	0.015
00:00:16.940	-0.090	0.015
00:00:16.942	-0.090	0.010
00:00:16.944	-0.075	0.010
00:00:16.946	-0.075	0.005
00:00:16.948	-0.075	0.000
00:00:16.950	-0.070	0.000
00:00:16.952	-0.080	-0.005
00:00:16.954	-0.095	-0.010
00:00:16.956	-0.110	-0.010
00:00:16.958	-0.120	-0.015
00:00:16.960	-0.140	-0.020
00:00:16.962	-0.145	-0.020
00:00:16.964	-0.130	-0.025
00:00:16.966	-0.125	-0.030
00:00:16.968	-0.120	-0.035
00:00:16.970	-0.110	-0.035
00:00:16.972	-0.115	-0.040
00:00:16.974	-0.115	-0.040
00:00:16.976	-0.135	-0.045
00:00:16.978	-0.140	-0.045
00:00:16.980	-0.150	-0.050
00:00:16.982	-0.155	-0.050
00:00:16.984	-0.145	-0.055
00:00:16.986	-0.125	-0.055
00:00:16.988	-0.115	-0.055
00:00:16.990	-0.115	-0.055
00:00:16.992	-0.125	-0.055
00:00:16.994	-0.145	-0.055
00:00:16.996	-0.145	-0.055
00:00:16.998	-0.145	-0.055
00:00:17.000	-0.165	-0.060
00:00:17.002	-0.170	-0.060
00:00:17.004	-0.150	-0.065
00:00:17.006	-0.135	-0.065
00:00:17.008	-0.120	-0.070
00:00:17.010	-0.130	-0.070
00:00:17.012	-0.135	-0.070
00:00:17.014	-0.150	-0.070
00:00:17.016	-0.170	-0.070
00:00:17.018	-0.170	-0.065
00:00:17.020	-0.170	-0.065
00:00:17.022	-0.170	-0.065
00:00:17.024	-0.160	-0.065
00:00:17.026	-0.140	-0.065
00:00:17.028	-0.125	-0.065
00:00:17.030	-0.115	-0.070
00:00:17.032	-0.135	-0.070
00:00:17.034	-0.150	-0.075
00:00:17.036	-0.155	-0.075
00:00:17.038	-0.170	-0.075
00:00:17.040	-0.170	-0.070
00:00:17.042	-0.170	-0.065
00:00:17.044	-0.155	-0.065
00:00:17.046	-0.155	-0.065
00:00:17.048	-0.150	-0.065
00:00:17.050	-0.155	-0.065
00:00:17.052	-0.165	-0.070
00:00:17.054	-0.180	-0.080
00:00:17.056	-0.190	-0.085
00:00:17.058	-0.210	-0.095
00:00:17.060	-0.220	-0.100
00:00:17.062	-0.200	-0.095
00:00:17.064	-0.185	-0.085
00:00:17.066	-0.130	-0.065
00:00:17.068	-0.060	-0.030
00:00:17.070	-0.005	0.015
00:00:17.072	0.035	0.075
00:00:17.074	0.085	0.145
00:00:17.076	0.150	0.230
00:00:17.078	0.195	0.315
00:00:17.080	0.290	0.400
00:00:17.082	0.405	0.485
00:00:17.084	0.545	0.555
00:00:17.086	0.640	0.610
00:00:17.088	0.615	0.645
00:00:17.090	0.620	0.650
00:00:17.092	0.540	0.625
00:00:17.094	0.470	0.570
00:00:17.096	0.375	0.490
00:00:17.098	0.280	0.390
00:00:17.100	0.185	0.285
00:00:17.102	0.075	0.175
00:00:17.104	-0.040	0.070
00:00:17.106	-0.155	-0.015
00:00:17.108	-0.190	-0.080
00:00:17.110	-0.200	-0.125
00:00:17.112	-0.195	-0.145
00:00:17.114	-0.210	-0.150
00:00:17.116	-0.195	-0.135
00:00:17.118	-0.175	-0.115
00:00:17.120	-0.150	-0.095
00:00:17.122	-0.135	-0.075
00:00:17.124	-0.115	-0.055
00:00:17.126	-0.095	-0.045
00:00:17.128	-0.100	-0.040
00:00:17.130	-0.095	-0.040
00:00:17.132	-0.110	-0.040
00:00:17.134	-0.125	-0.040
00:00:17.136	-0.140	-0.045
00:00:17.138	-0.145	-0.045
00:00:17.140	-0.145	-0.050
00:00:17.142	-0.135	-0.050
00:00:17.144	-0.115	-0.050
00:00:17.146	-0.120	-0.050
00:00:17.148	-0.105	-0.055
00:00:17.150	-0.090	-0.055
00:00:17.152	-0.105	-0.060
00:00:17.154	-0.115	-0.060
00:00:17.156	-0.125	-0.060
00:00:17.158	-0.130	-0.060
00:00:17.160	-0.130	-0.060
00:00:17.162	-0.115	-0.060
00:00:17.164	-0.105	-0.055
00:00:17.166	-0.095	-0.055
00:00:17.168	-0.080	-0.050
00:00:17.170	-0.080	-0.045
00:00:17.172	-0.085	-0.045
00:00:17.174	-0.090	-0.040
00:00:17.176	-0.090	-0.035
00:00:17.178	-0.095	-0.030
00:00:17.180	-0.115	-0.025
00:00:17.182	-0.110	-0.025
00:00:17.184	-0.110	-0.025
00:00:17.186	-0.095	-0.025
00:00:17.188	-0.090	-0.025
00:00:17.190	-0.090	-0.030
00:00:17.192	-0.090	-0.030
00:00:17.194	-0.100	-0.035
00:00:17.196	-0.100	-0.035
00:00:17.198	-0.110	-0.035
00:00:17.200	-0.105	-0.035
00:00:17.202	-0.090	-0.030
00:00:17.204	-0.070	-0.025
00:00:17.206	-0.065	-0.020
00:00:17.208	-0.060	-0.015
00:00:17.210	-0.050	-0.010
00:00:17.212	-0.055	-0.005
00:00:17.214	-0.065	0.000
00:00:17.216	-0.070	0.005
00:00:17.218	-0.080	0.010
00:00:17.220	-0.085	0.015
00:00:17.222	-0.085	0.015
00:00:17.224	-0.060	0.015
00:00:17.226	-0.050	0.010
00:00:17.228	-0.055	0.010
00:00:17.230	-0.050	0.010
00:00:17.232	-0.065	0.005
00:00:17.234	-0.050	0.005
00:00:17.236	-0.060	0.010
00:00:17.238	-0.075	0.010
00:00:17.240	-0.065	0.015
00:00:17.242	-0.045	0.020
00:00:17.244	-0.030	0.025
00:00:17.246	-0.025	0.030
00:00:17.248	-0.010	0.030
00:00:17.250	-0.020	0.035
00:00:17.252	-0.025	0.035
00:00:17.254	-0.030	0.035
00:00:17.256	-0.030	0.035
00:00:17.258	-0.035	0.040
00:00:17.260	-0.025	0.040
00:00:17.262	0.000	0.045
00:00:17.264	0.015	0.050
00:00:17.266	0.020	0.060
00:00:17.268	0.045	0.065
00:00:17.270	0.045	0.075
00:00:17.272	0.040	0.080
00:00:17.274	0.040	0.090
00:00:17.276	0.040	0.095
00:00:17.278	0.050	0.100
00:00:17.280	0.050	0.105
00:00:17.282	0.055	0.110
00:00:17.284	0.075	0.120
00:00:17.286	0.095	0.125
00:00:17.288	0.110	0.130
00:00:17.290	0.110	0.140
00:00:17.292	0.100	0.145
00:00:17.294	0.105	0.150
00:00:17.296	0.110	0.160
00:00:17.298	0.110	0.165
00:00:17.300	0.115	0.170
00:00:17.302	0.120	0.170
00:00:17.304	0.125	0.175
00:00:17.306	0.145	0.180
00:00:17.308	0.145	0.185
00:00:17.310	0.150	0.190
00:00:17.312	0.140	0.195
00:00:17.314	0.125	0.200
00:00:17.316	0.125	0.200
00:00:17.318	0.125	0.200
00:00:17.320	0.120	0.200
00:00:17.322	0.125	0.200
00:00:17.324	0.130	0.200
00:00:17.326	0.130	0.195
00:00:17.328	0.135	0.195
00:00:17.330	0.130	0.185
00:00:17.332	0.110	0.180
00:00:17.334	0.095	0.170
00:00:17.336	0.080	0.155
00:00:17.338	0.065	0.145
00:00:17.340	0.050	0.130
00:00:17.342	0.065	0.115
00:00:17.344	0.055	0.105
00:00:17.346	0.050	0.095
00:00:17.348	0.055	0.085
00:00:17.350	0.045	0.080
00:00:17.352	0.015	0.070
00:00:17.354	0.005	0.065
00:00:17.356	-0.025	0.060
00:00:17.358	-0.040	0.050
00:00:17.360	-0.020	0.040
00:00:17.362	-0.010	0.035
00:00:17.364	-0.020	0.025
00:00:17.366	-0.030	0.020
00:00:17.368	-0.030	0.015
00:00:17.370	-0.040	0.010
00:00:17.372	-0.050	0.005
00:00:17.374	-0.065	0.000
00:00:17.376	-0.065	0.000
00:00:17.378	-0.080	-0.005
00:00:17.380	-0.070	-0.010
00:00:17.382	-0.085	-0.015
00:00:17.384	-0.085	-0.015
00:00:17.386	-0.080	-0.020
00:00:17.388	-0.080	-0.025
00:00:17.390	-0.080	-0.025
00:00:17.392	-0.090	-0.030
00:00:17.394	-0.105	-0.030
00:00:17.396	-0.105	-0.030
00:00:17.398	-0.105	-0.035
00:00:17.400	-0.100	-0.035
00:00:17.402	-0.085	-0.040
00:00:17.404	-0.075	-0.040
00:00:17.406	-0.075	-0.045
00:00:17.408	-0.085	-0.045
00:00:17.410	-0.085	-0.050
00:00:17.412	-0.105	-0.050
00:00:17.414	-0.105	-0.055
00:00:17.416	-0.115	-0.055
00:00:17.418	-0.130	-0.060
00:00:17.420	-0.120	-0.065
00:00:17.422	-0.095	-0.065
00:00:17.424	-0.085	-0.070
00:00:17.426	-0.080	-0.075
00:00:17.428	-0.075	-0.075
00:00:17.430	-0.085	-0.075
00:00:17.432	-0.095	-0.075
00:00:17.434	-0.105	-0.070
00:00:17.436	-0.105	-0.065
00:00:17.438	-0.120	-0.055
00:00:17.440	-0.085	-0.050
00:00:17.442	-0.080	-0.040
00:00:17.444	-0.075	-0.035
00:00:17.446	-0.075	-0.030
00:00:17.448	-0.080	-0.025
00:00:17.450	-0.090	-0.025
00:00:17.452	-0.095	-0.025
00:00:17.454	-0.095	-0.025
00:00:17.456	-0.095	-0.030
00:00:17.458	-0.105	-0.035
00:00:17.460	-0.090	-0.040
00:00:17.462	-0.075	-0.045
00:00:17.464	-0.075	-0.050
00:00:17.466	-0.080	-0.055
00:00:17.468	-0.075	-0.055
00:00:17.470	-0.090	-0.055
00:00:17.472	-0.095	-0.055
00:00:17.474	-0.110	-0.050
00:00:17.476	-0.110	-0.050
00:00:17.478	-0.100	-0.045
00:00:17.480	-0.075	-0.045
00:00:17.482	-0.070	-0.045
00:00:17.484	-0.060	-0.045
00:00:17.486	-0.050	-0.045
00:00:17.488	-0.055	-0.045
00:00:17.490	-0.070	-0.045
00:00:17.492	-0.075	-0.050
00:00:17.494	-0.080	-0.050
00:00:17.496	-0.080	-0.050
00:00:17.498	-0.075	-0.050
00:00:17.500	-0.075	-0.045
00:00:17.502	-0.070	-0.040
00:00:17.504	-0.050	-0.040
00:00:17.506	-0.045	-0.035
00:00:17.508	-0.035	-0.030
00:00:17.510	-0.055	-0.030
00:00:17.512	-0.065	-0.030
00:00:17.514	-0.065	-0.030
00:00:17.516	-0.070	-0.030
00:00:17.518	-0.070	-0.035
00:00:17.520	-0.065	-0.040
00:00:17.522	-0.055	-0.040
00:00:17.524	-0.040	-0.045
00:00:17.526	-0.030	-0.045
00:00:17.528	-0.030	-0.045
00:00:17.530	-0.045	-0.040
00:00:17.532	-0.055	-0.035
00:00:17.534	-0.065	-0.030
00:00:17.536	-0.060	-0.025
00:00:17.538	-0.045	-0.020
00:00:17.540	-0.040	-0.015
00:00:17.542	-0.035	-0.010
00:00:17.544	-0.035	-0.010
00:00:17.546	-0.035	-0.005
00:00:17.548	-0.020	-0.005
00:00:17.550	-0.040	-0.005
00:00:17.552	-0.045	-0.010
00:00:17.554	-0.055	-0.010
00:00:17.556	-0.070	-0.015
00:00:17.558	-0.065	-0.015
00:00:17.560	-0.055	-0.020
00:00:17.562	-0.040	-0.025
00:00:17.564	-0.015	-0.030
00:00:17.566	-0.040	-0.030
00:00:17.568	-0.045	-0.035
00:00:17.570	-0.045	-0.040
00:00:17.572	-0.055	-0.045
00:00:17.574	-0.065	-0.045
00:00:17.576	-0.070	-0.045
00:00:17.578	-0.065	-0.045
00:00:17.580	-0.050	-0.040
00:00:17.582	-0.035	-0.040
00:00:17.584	-0.035	-0.035
00:00:17.586	-0.035	-0.030
00:00:17.588	-0.035	-0.030
00:00:17.590	-0.050	-0.025
00:00:17.592	-0.060	-0.025
00:00:17.594	-0.055	-0.025
00:00:17.596	-0.070	-0.025
00:00:17.598	-0.070	-0.030
00:00:17.600	-0.055	-0.030
00:00:17.602	-0.045	-0.035
00:00:17.604	-0.040	-0.035
00:00:17.606	-0.030	-0.035
00:00:17.608	-0.025	-0.035
00:00:17.610	-0.050	-0.035
00:00:17.612	-0.065	-0.035
00:00:17.614	-0.085	-0.030
00:00:17.616	-0.085	-0.030
00:00:17.618	-0.070	-0.025
00:00:17.620	-0.055	-0.025
00:00:17.622	-0.035	-0.030
00:00:17.624	-0.040	-0.030
00:00:17.626	-0.045	-0.035
00:00:17.628	-0.045	-0.035
00:00:17.630	-0.050	-0.040
00:00:17.632	-0.075	-0.040
00:00:17.634	-0.075	-0.045
00:00:17.636	-0.095	-0.045
00:00:17.638	-0.090	-0.045
00:00:17.640	-0.080	-0.045
00:00:17.642	-0.065	-0.045
00:00:17.644	-0.055	-0.045
00:00:17.646	-0.050	-0.045
00:00:17.648	-0.050	-0.045
00:00:17.650	-0.060	-0.045
00:00:17.652	-0.075	-0.045
00:00:17.654	-0.080	-0.045
00:00:17.656	-0.090	-0.045
00:00:17.658	-0.080	-0.045
00:00:17.660	-0.060	-0.040
00:00:17.662	-0.045	-0.040
00:00:17.664	-0.055	-0.040
00:00:17.666	-0.055	-0.040
00:00:17.668	-0.065	-0.040
00:00:17.670	-0.075	-0.045
00:00:17.672	-0.080	-0.045
00:00:17.674	-0.080	-0.050
00:00:17.676	-0.085	-0.050
00:00:17.678	-0.075	-0.055
00:00:17.680	-0.075	-0.060
00:00:17.682	-0.070	-0.060
00:00:17.684	-0.060	-0.060
00:00:17.686	-0.055	-0.060
00:00:17.688	-0.050	-0.060
00:00:17.690	-0.065	-0.060
00:00:17.692	-0.075	-0.055
00:00:17.694	-0.080	-0.050
00:00:17.696	-0.090	-0.050
00:00:17.698	-0.090	-0.050
00:00:17.700	-0.075	-0.045
00:00:17.702	-0.060	-0.045
00:00:17.704	-0.065	-0.045
00:00:17.706	-0.055	-0.045
00:00:17.708	-0.060	-0.045
00:00:17.710	-0.075	-0.045
00:00:17.712	-0.080	-0.050
00:00:17.714	-0.095	-0.050
00:00:17.716	-0.105	-0.050
00:00:17.718	-0.100	-0.050
00:00:17.720	-0.095	-0.050
00:00:17.722	-0.075	-0.050
00:00:17.724	-0.075	-0.055
00:00:17.726	-0.070	-0.055
00:00:17.728	-0.075	-0.060
00:00:17.730	-0.090	-0.065
00:00:17.732	-0.095	-0.065
00:00:17.734	-0.090	-0.070
00:00:17.736	-0.105	-0.070
00:00:17.738	-0.085	-0.065
00:00:17.740	-0.065	-0.060
00:00:17.742	-0.045	-0.055
00:00:17.744	-0.045	-0.050
00:00:17.746	-0.020	-0.040
00:00:17.748	-0.040	-0.035
00:00:17.750	-0.065	-0.025
00:00:17.752	-0.065	-0.020
00:00:17.754	-0.070	-0.020
00:00:17.756	-0.075	-0.020
00:00:17.758	-0.070	-0.020
00:00:17.760	-0.065	-0.020
00:00:17.762	-0.060	-0.025
00:00:17.764	-0.040	-0.030
00:00:17.766	-0.030	-0.035
00:00:17.768	-0.045	-0.035
00:00:17.770	-0.070	-0.040
00:00:17.772	-0.060	-0.040
00:00:17.774	-0.055	-0.035
00:00:17.776	-0.050	-0.035
00:00:17.778	-0.035	-0.030
00:00:17.780	-0.020	-0.030
00:00:17.782	-0.025	-0.025
00:00:17.784	-0.010	-0.015
00:00:17.786	-0.005	-0.010
00:00:17.788	-0.025	-0.005
00:00:17.790	-0.045	0.000
00:00:17.792	-0.030	0.005
00:00:17.794	-0.025	0.010
00:00:17.796	-0.030	0.010
00:00:17.798	-0.025	0.010
00:00:17.800	-0.020	0.010
00:00:17.802	-0.010	0.005
00:00:17.804	-0.015	0.000
00:00:17.806	-0.025	-0.005
00:00:17.808	-0.040	-0.015
00:00:17.810	-0.075	-0.025
00:00:17.812	-0.090	-0.035
00:00:17.814	-0.100	-0.040
00:00:17.816	-0.110	-0.045
00:00:17.818	-0.100	-0.055
00:00:17.820	-0.090	-0.055
00:00:17.822	-0.085	-0.060
00:00:17.824	-0.080	-0.065
00:00:17.826	-0.085	-0.065
00:00:17.828	-0.080	-0.070
00:00:17.830	-0.100	-0.070
00:00:17.832	-0.105	-0.070
00:00:17.834	-0.095	-0.075
00:00:17.836	-0.110	-0.075
00:00:17.838	-0.095	-0.075
00:00:17.840	-0.080	-0.075
00:00:17.842	-0.085	-0.080
00:00:17.844	-0.075	-0.080
00:00:17.846	-0.070	-0.080
00:00:17.848	-0.085	-0.080
00:00:17.850	-0.100	-0.080
00:00:17.852	-0.115	-0.075
00:00:17.854	-0.110	-0.075
00:00:17.856	-0.125	-0.075
00:00:17.858	-0.105	-0.070
00:00:17.860	-0.095	-0.070
00:00:17.862	-0.085	-0.070
00:00:17.864	-0.085	-0.065
00:00:17.866	-0.095	-0.070
00:00:17.868	-0.110	-0.070
00:00:17.870	-0.125	-0.070
00:00:17.872	-0.120	-0.075
00:00:17.874	-0.100	-0.075
00:00:17.876	-0.120	-0.080
00:00:17.878	-0.110	-0.080
00:00:17.880	-0.105	-0.085
00:00:17.882	-0.090	-0.085
00:00:17.884	-0.085	-0.085
00:00:17.886	-0.095	-0.085
00:00:17.888	-0.120	-0.090
00:00:17.890	-0.115	-0.090
00:00:17.892	-0.120	-0.090
00:00:17.894	-0.120	-0.085
00:00:17.896	-0.115	-0.085
00:00:17.898	-0.105	-0.085
00:00:17.900	-0.100	-0.080
00:00:17.902	-0.100	-0.085
00:00:17.904	-0.095	-0.085
00:00:17.906	-0.110	-0.090
00:00:17.908	-0.140	-0.100
00:00:17.910	-0.150	-0.110
00:00:17.912	-0.150	-0.120
00:00:17.914	-0.170	-0.125
00:00:17.916	-0.175	-0.130
00:00:17.918	-0.155	-0.120
00:00:17.920	-0.115	-0.105
00:00:17.922	-0.055	-0.075
00:00:17.924	0.000	-0.030
00:00:17.926	0.045	0.025
00:00:17.928	0.100	0.095
00:00:17.930	0.155	0.170
00:00:17.932	0.215	0.255
00:00:17.934	0.285	0.340
00:00:17.936	0.385	0.425
00:00:17.938	0.530	0.500
00:00:17.940	0.630	0.560
00:00:17.942	0.665	0.605
00:00:17.944	0.655	0.620
00:00:17.946	0.590	0.610
00:00:17.948	0.505	0.565
00:00:17.950	0.425	0.495
00:00:17.952	0.345	0.400
00:00:17.954	0.250	0.290
00:00:17.956	0.150	0.180
00:00:17.958	0.025	0.070
00:00:17.960	-0.090	-0.020
00:00:17.962	-0.160	-0.090
00:00:17.964	-0.170	-0.135
00:00:17.966	-0.155	-0.160
00:00:17.968	-0.150	-0.160
00:00:17.970	-0.145	-0.145
00:00:17.972	-0.145	-0.125
00:00:17.974	-0.110	-0.105
00:00:17.976	-0.095	-0.085
00:00:17.978	-0.075	-0.075
00:00:17.980	-0.060	-0.070
00:00:17.982	-0.045	-0.070
00:00:17.984	-0.050	-0.070
00:00:17.986	-0.060	-0.070
00:00:17.988	-0.075	-0.070
00:00:17.990	-0.095	-0.070
00:00:17.992	-0.090	-0.060
00:00:17.994	-0.090	-0.055
00:00:17.996	-0.090	-0.050
00:00:17.998	-0.085	-0.045
00:00:18.000	-0.080	-0.040
00:00:18.002	-0.070	-0.040
00:00:18.004	-0.050	-0.040
00:00:18.006	-0.060	-0.045
00:00:18.008	-0.065	-0.050
00:00:18.010	-0.080	-0.050
00:00:18.012	-0.090	-0.055
00:00:18.014	-0.100	-0.055
00:00:18.016	-0.090	-0.055
00:00:18.018	-0.060	-0.050
00:00:18.020	-0.055	-0.045
00:00:18.022	-0.055	-0.045
00:00:18.024	-0.040	-0.040
00:00:18.026	-0.055	-0.035
00:00:18.028	-0.070	-0.035
00:00:18.030	-0.080	-0.035
00:00:18.032	-0.065	-0.035
00:00:18.034	-0.065	-0.035
00:00:18.036	-0.050	-0.035
00:00:18.038	-0.055	-0.035
00:00:18.040	-0.045	-0.035
00:00:18.042	-0.030	-0.035
00:00:18.044	-0.015	-0.035
00:00:18.046	-0.030	-0.030
00:00:18.048	-0.050	-0.030
00:00:18.050	-0.045	-0.020
00:00:18.052	-0.045	-0.015
00:00:18.054	-0.060	-0.010
00:00:18.056	-0.035	-0.005
00:00:18.058	-0.025	-0.005
00:00:18.060	-0.025	0.000
00:00:18.062	-0.035	0.000
00:00:18.064	-0.030	0.000
00:00:18.066	-0.035	0.000
00:00:18.068	-0.035	-0.005
00:00:18.070	-0.045	-0.005
00:00:18.072	-0.055	-0.005
00:00:18.074	-0.055	-0.005
00:00:18.076	-0.040	0.000
00:00:18.078	-0.030	0.000
00:00:18.080	-0.015	0.000
00:00:18.082	-0.005	0.000
00:00:18.084	0.010	0.000
00:00:18.086	-0.005	0.000
00:00:18.088	-0.010	0.000
00:00:18.090	-0.005	0.000
00:00:18.092	-0.010	0.000
00:00:18.094	-0.015	0.005
00:00:18.096	-0.015	0.010
00:00:18.098	0.010	0.020
00:00:18.100	0.010	0.030
00:00:18.102	0.030	0.040
00:00:18.104	0.050	0.050
00:00:18.106	0.040	0.060
00:00:18.108	0.020	0.065
00:00:18.110	0.020	0.070
00:00:18.112	0.020	0.070
00:00:18.114	0.015	0.070
00:00:18.116	0.040	0.070
00:00:18.118	0.055	0.065
00:00:18.120	0.070	0.065
00:00:18.122	0.085	0.065
00:00:18.124	0.085	0.065
00:00:18.126	0.080	0.070
00:00:18.128	0.085	0.075
00:00:18.130	0.070	0.085
00:00:18.132	0.075	0.095
00:00:18.134	0.070	0.100
00:00:18.136	0.090	0.110
00:00:18.138	0.105	0.115
00:00:18.140	0.125	0.125
00:00:18.142	0.140	0.130
00:00:18.144	0.135	0.135
00:00:18.146	0.130	0.140
00:00:18.148	0.135	0.145
00:00:18.150	0.135	0.150
00:00:18.152	0.140	0.155
00:00:18.154	0.145	0.160
00:00:18.156	0.155	0.165
00:00:18.158	0.155	0.170
00:00:18.160	0.170	0.175
00:00:18.162	0.180	0.180
00:00:18.164	0.175	0.180
00:00:18.166	0.165	0.185
00:00:18.168	0.155	0.185
00:00:18.170	0.160	0.185
00:00:18.172	0.155	0.185
00:00:18.174	0.150	0.190
00:00:18.176	0.155	0.190
00:00:18.178	0.170	0.190
00:00:18.180	0.170	0.190
00:00:18.182	0.180	0.190
00:00:18.184	0.180	0.185
00:00:18.186	0.155	0.180
00:00:18.188	0.130	0.175
00:00:18.190	0.115	0.170
00:00:18.192	0.110	0.160
00:00:18.194	0.095	0.155
00:00:18.196	0.095	0.145
00:00:18.198	0.100	0.135
00:00:18.200	0.090	0.130
00:00:18.202	0.080	0.115
00:00:18.204	0.075	0.105
00:00:18.206	0.060	0.095
00:00:18.208	0.040	0.080
00:00:18.210	0.050	0.065
00:00:18.212	0.005	0.055
00:00:18.214	-0.015	0.045
00:00:18.216	0.005	0.035
00:00:18.218	0.005	0.025
00:00:18.220	0.000	0.020
00:00:18.222	-0.005	0.015
00:00:18.224	-0.010	0.015
00:00:18.226	-0.030	0.010
00:00:18.228	-0.030	0.010
00:00:18.230	-0.040	0.005
00:00:18.232	-0.050	0.000
00:00:18.234	-0.055	-0.005
00:00:18.236	-0.045	-0.010
00:00:18.238	-0.040	-0.015
00:00:18.240	-0.035	-0.020
00:00:18.242	-0.050	-0.025
00:00:18.244	-0.050	-0.030
00:00:18.246	-0.075	-0.030
00:00:18.248	-0.080	-0.035
00:00:18.250	-0.090	-0.035
00:00:18.252	-0.100	-0.035
00:00:18.254	-0.085	-0.035
00:00:18.256	-0.075	-0.040
00:00:18.258	-0.060	-0.040
00:00:18.260	-0.055	-0.045
00:00:18.262	-0.050	-0.045
00:00:18.264	-0.075	-0.045
00:00:18.266	-0.085	-0.045
00:00:18.268	-0.095	-0.045
00:00:18.270	-0.095	-0.045
00:00:18.272	-0.095	-0.045
00:00:18.274	-0.085	-0.045
00:00:18.276	-0.080	-0.050
00:00:18.278	-0.070	-0.050
00:00:18.280	-0.065	-0.055
00:00:18.282	-0.055	-0.055
00:00:18.284	-0.065	-0.060
00:00:18.286	-0.075	-0.065
00:00:18.288	-0.080	-0.065
00:00:18.290	-0.105	-0.065
00:00:18.292	-0.100	-0.060
00:00:18.294	-0.085	-0.055
00:00:18.296	-0.085	-0.050
00:00:18.298	-0.065	-0.045
00:00:18.300	-0.055	-0.040
00:00:18.302	-0.050	-0.035
00:00:18.304	-0.055	-0.030
00:00:18.306	-0.070	-0.030
00:00:18.308	-0.060	-0.025
00:00:18.310	-0.075	-0.025
00:00:18.312	-0.100	-0.025
00:00:18.314	-0.095	-0.025
00:00:18.316	-0.085	-0.030
00:00:18.318	-0.070	-0.035
00:00:18.320	-0.050	-0.040
00:00:18.322	-0.045	-0.045
00:00:18.324	-0.060	-0.050
00:00:18.326	-0.065	-0.050
00:00:18.328	-0.070	-0.055
00:00:18.330	-0.095	-0.055
00:00:18.332	-0.090	-0.055
00:00:18.334	-0.090	-0.055
00:00:18.336	-0.065	-0.055
00:00:18.338	-0.070	-0.050
00:00:18.340	-0.055	-0.050
00:00:18.342	-0.050	-0.050
00:00:18.344	-0.060	-0.045
00:00:18.346	-0.070	-0.045
00:00:18.348	-0.075	-0.045
00:00:18.350	-0.085	-0.040
00:00:18.352	-0.100	-0.040
00:00:18.354	-0.075	-0.040
00:00:18.356	-0.075	-0.035
00:00:18.358	-0.060	-0.035
00:00:18.360	-0.060	-0.035
00:00:18.362	-0.055	-0.035
00:00:18.364	-0.055	-0.035
00:00:18.366	-0.065	-0.035
00:00:18.368	-0.080	-0.035
00:00:18.370	-0.075	-0.035
00:00:18.372	-0.070	-0.035
00:00:18.374	-0.065	-0.030
00:00:18.376	-0.065	-0.030
00:00:18.378	-0.045	-0.025
00:00:18.380	-0.025	-0.020
00:00:18.382	-0.035	-0.020
00:00:18.384	-0.045	-0.015
00:00:18.386	-0.065	-0.015
00:00:18.388	-0.075	-0.020
00:00:18.390	-0.075	-0.020
00:00:18.392	-0.080	-0.025
00:00:18.394	-0.080	-0.025
00:00:18.396	-0.065	-0.030
00:00:18.398	-0.060	-0.035
00:00:18.400	-0.050	-0.040
00:00:18.402	-0.060	-0.040
00:00:18.404	-0.070	-0.040
00:00:18.406	-0.070	-0.045
00:00:18.408	-0.080	-0.045
00:00:18.410	-0.090	-0.045
00:00:18.412	-0.110	-0.045
00:00:18.414	-0.090	-0.045
00:00:18.416	-0.075	-0.045
00:00:18.418	-0.070	-0.045
00:00:18.420	-0.045	-0.045
00:00:18.422	-0.055	-0.045
00:00:18.424	-0.080	-0.045
00:00:18.426	-0.070	-0.045
00:00:18.428	-0.075	-0.045
00:00:18.430	-0.095	-0.040
00:00:18.432	-0.100	-0.040
00:00:18.434	-0.085	-0.035
00:00:18.436	-0.075	-0.035
00:00:18.438	-0.065	-0.030
00:00:18.440	-0.065	-0.030
00:00:18.442	-0.065	-0.030
00:00:18.444	-0.075	-0.035
00:00:18.446	-0.100	-0.040
00:00:18.448	-0.090	-0.045
00:00:18.450	-0.090	-0.050
00:00:18.452	-0.095	-0.055
00:00:18.454	-0.080	-0.055
00:00:18.456	-0.055	-0.055
00:00:18.458	-0.060	-0.055
00:00:18.460	-0.045	-0.050
00:00:18.462	-0.055	-0.045
00:00:18.464	-0.080	-0.040
00:00:18.466	-0.075	-0.035
00:00:18.468	-0.090	-0.030
00:00:18.470	-0.095	-0.030
00:00:18.472	-0.100	-0.035
00:00:18.474	-0.085	-0.040
00:00:18.476	-0.080	-0.045
00:00:18.478	-0.075	-0.050
00:00:18.480	-0.055	-0.050
00:00:18.482	-0.050	-0.055
00:00:18.484	-0.060	-0.055
00:00:18.486	-0.070	-0.050
00:00:18.488	-0.085	-0.050
00:00:18.490	-0.095	-0.045
00:00:18.492	-0.105	-0.040
00:00:18.494	-0.080	-0.040
00:00:18.496	-0.070	-0.040
00:00:18.498	-0.085	-0.045
00:00:18.500	-0.075	-0.045
00:00:18.502	-0.085	-0.050
00:00:18.504	-0.090	-0.055
00:00:18.506	-0.100	-0.055
00:00:18.508	-0.075	-0.055
00:00:18.510	-0.105	-0.055
00:00:18.512	-0.100	-0.050
00:00:18.514	-0.090	-0.045
00:00:18.516	-0.085	-0.045
00:00:18.518	-0.065	-0.040
00:00:18.520	-0.045	-0.040
00:00:18.522	-0.055	-0.040
00:00:18.524	-0.065	-0.045
00:00:18.526	-0.095	-0.050
00:00:18.528	-0.110	-0.055
00:00:18.530	-0.110	-0.060
00:00:18.532	-0.090	-0.060
00:00:18.534	-0.085	-0.060
00:00:18.536	-0.065	-0.055
00:00:18.538	-0.065	-0.050
00:00:18.540	-0.050	-0.045
00:00:18.542	-0.070	-0.040
00:00:18.544	-0.075	-0.040
00:00:18.546	-0.095	-0.035
00:00:18.548	-0.095	-0.035
00:00:18.550	-0.090	-0.040
00:00:18.552	-0.090	-0.040
00:00:18.554	-0.070	-0.045
00:00:18.556	-0.075	-0.050
00:00:18.558	-0.075	-0.050
00:00:18.560	-0.060	-0.055
00:00:18.562	-0.065	-0.055
00:00:18.564	-0.085	-0.055
00:00:18.566	-0.095	-0.055
00:00:18.568	-0.105	-0.055
00:00:18.570	-0.100	-0.050
00:00:18.572	-0.095	-0.050
00:00:18.574	-0.075	-0.050
00:00:18.576	-0.080	-0.050
00:00:18.578	-0.065	-0.045
00:00:18.580	-0.065	-0.050
00:00:18.582	-0.060	-0.050
00:00:18.584	-0.060	-0.050
00:00:18.586	-0.085	-0.050
00:00:18.588	-0.085	-0.050
00:00:18.590	-0.075	-0.045
00:00:18.592	-0.060	-0.040
00:00:18.594	-0.060	-0.035
00:00:18.596	-0.045	-0.030
00:00:18.598	-0.045	-0.020
00:00:18.600	-0.045	-0.015
00:00:18.602	-0.030	-0.010
00:00:18.604	-0.045	-0.010
00:00:18.606	-0.045	-0.010
00:00:18.608	-0.055	-0.010
00:00:18.610	-0.055	-0.015
00:00:18.612	-0.060	-0.025
00:00:18.614	-0.050	-0.030
00:00:18.616	-0.040	-0.030
00:00:18.618	-0.030	-0.030
00:00:18.620	-0.025	-0.025
00:00:18.622	-0.015	-0.020
00:00:18.624	-0.010	-0.005
00:00:18.626	-0.010	0.005
00:00:18.628	-0.005	0.020
00:00:18.630	-0.025	0.030
00:00:18.632	-0.010	0.035
00:00:18.634	-0.015	0.040
00:00:18.636	-0.030	0.035
00:00:18.638	-0.005	0.030
00:00:18.640	0.000	0.020
00:00:18.642	-0.025	0.010
00:00:18.644	-0.035	0.005
00:00:18.646	-0.025	-0.005
00:00:18.648	-0.035	-0.010
00:00:18.650	-0.045	-0.010
00:00:18.652	-0.045	-0.010
00:00:18.654	-0.045	-0.010
00:00:18.656	-0.035	-0.010
00:00:18.658	-0.040	-0.010
00:00:18.660	-0.030	-0.010
00:00:18.662	-0.040	-0.010
00:00:18.664	-0.060	-0.015
00:00:18.666	-0.085	-0.020
00:00:18.668	-0.105	-0.025
00:00:18.670	-0.115	-0.035
00:00:18.672	-0.100	-0.045
00:00:18.674	-0.070	-0.050
00:00:18.676	-0.075	-0.055
00:00:18.678	-0.080	-0.065
00:00:18.680	-0.080	-0.065
00:00:18.682	-0.075	-0.070
00:00:18.684	-0.095	-0.070
00:00:18.686	-0.110	-0.070
00:00:18.688	-0.125	-0.065
00:00:18.690	-0.120	-0.065
00:00:18.692	-0.100	-0.065
00:00:18.694	-0.085	-0.065
00:00:18.696	-0.075	-0.065
00:00:18.698	-0.060	-0.065
00:00:18.700	-0.080	-0.065
00:00:18.702	-0.095	-0.060
00:00:18.704	-0.105	-0.060
00:00:18.706	-0.100	-0.055
00:00:18.708	-0.105	-0.050
00:00:18.710	-0.105	-0.045
00:00:18.712	-0.105	-0.045
00:00:18.714	-0.090	-0.045
00:00:18.716	-0.080	-0.045
00:00:18.718	-0.065	-0.050
00:00:18.720	-0.080	-0.055
00:00:18.722	-0.090	-0.060
00:00:18.724	-0.095	-0.065
00:00:18.726	-0.125	-0.065
00:00:18.728	-0.125	-0.070
00:00:18.730	-0.115	-0.070
00:00:18.732	-0.115	-0.075
